{
  "AcquisitionMatrixPE": 64,
  "AcquisitionNumber": 1,
  "AcquisitionTime": "13:29:21.202500",
  "BandwidthPerPixelPhaseEncode": 24.038,
  "BaseResolution": 64,
  "BodyPartExamined": "HEAD",
  "ConsistencyInfo": "N4_VD13A_LATEST_20120616",
  "ConversionSoftware": "dcm2niix",
  "ConversionSoftwareVersion": "v1.0.20181125  GCC6.3.0",
  "DerivedVendorReportedEchoSpacing": 0.000650012,
  "DeviceSerialNumber": "45250",
  "DwellTime": 4.6e-06,
  "EchoTime": 0.033,
  "EchoTrainLength": 64,
  "EffectiveEchoSpacing": 0.000650012,
  "FlipAngle": 90,
  "ImageOrientationPatientDICOM": [0.999376, 0.0295591, -0.0193539, -0.0331527, 0.973925, -0.224434],
  "ImageType": [
    "ORIGINAL",
    "PRIMARY",
    "M",
    "ND",
    "NORM",
    "MOSAIC"
],
  "ImagingFrequency": 123.215,
  "InPlanePhaseEncodingDirectionDICOM": "COL",
  "InstitutionAddress": "Kopernikusstr._26_Graz_Graz_AT_8010",
  "InstitutionName": "KFU",
  "InstitutionalDepartmentName": "Department",
  "MRAcquisitionType": "2D",
  "MagneticFieldStrength": 3,
  "Manufacturer": "Siemens",
  "ManufacturersModelName": "Skyra",
  "Modality": "MR",
  "PartialFourier": 1,
  "PatientPosition": "HFS",
  "PercentPhaseFOV": 100,
  "PhaseEncodingDirection": "j-",
  "PhaseEncodingSteps": 64,
  "PhaseResolution": 1,
  "PixelBandwidth": 1700,
  "ProcedureStepDescription": "KFU_Entw-Psy",
  "ProtocolName": "fMRI_1",
  "PulseSequenceDetails": "%SiemensSeq%_ep2d_pace",
  "ReceiveCoilActiveElements": "HE1-4",
  "ReceiveCoilName": "HeadNeck_20",
  "ReconMatrixPE": 64,
  "RepetitionTime": 2.34,
  "SAR": 0.176752,
  "ScanOptions": "FS",
  "ScanningSequence": "EP",
  "SequenceName": "_epfid2d1_64",
  "SequenceVariant": "SK",
  "SeriesDescription": "fMRI_1",
  "SeriesNumber": 2,
  "ShimSetting": [-1586, -3700, -4300, 564, 553, 44, 78, -353],
  "SliceThickness": 3,
  "SliceTiming": [2.2525, 2.185, 2.115, 2.0475, 1.98, 1.91, 1.8425, 1.775, 1.7075, 1.6375, 1.57, 1.5025, 1.4325, 1.365, 1.2975, 1.23, 1.16, 1.0925, 1.025, 0.955, 0.8875, 0.82, 0.75, 0.6825, 0.615, 0.5475, 0.4775, 0.41, 0.3425, 0.2725, 0.205, 0.1375, 0.07, 0],
  "SoftwareVersions": "syngo_MR_D13",
  "SpacingBetweenSlices": 3.3,
  "StationName": "FBMTMR1",
  "TaskName": "read",
  "TotalReadoutTime": 0.0409508,
  "TxRefAmp": 328.231,
  "dcmmeta_affine": [
    [-2.998126983642578, -0.09945819526910782, -0.04030996188521385, 101.08555603027344],
    [-0.08867734670639038, 2.9217755794525146, -0.7422873377799988, -101.44882202148438],
    [-0.05806157737970352, 0.6733021140098572, 3.2151803970336914, -36.416175842285156],
    [0.0, 0.0, 0.0, 1.0]
],
  "dcmmeta_reorient_transform": [
    [0.0, -1.0, 0.0, 63.0],
    [1.0, 0.0, 0.0, 0.0],
    [0.0, 0.0, 1.0, 0.0],
    [0.0, 0.0, 0.0, 1.0]
],
  "dcmmeta_shape": [64, 64, 34, 128],
  "dcmmeta_slice_dim": 2,
  "dcmmeta_version": 0.6,
  "global": {
    "const": {
      "AcquisitionMatrix": [64, 0, 0, 64],
      "AngioFlag": "N",
      "BitsAllocated": 16,
      "BitsStored": 12,
      "BodyPartExamined": "HEAD",
      "Columns": 384,
      "EchoNumbers": 1,
      "EchoTime": 33.0,
      "EchoTrainLength": 64,
      "FlipAngle": 90.0,
      "HighBit": 11,
      "ImageOrientationPatient": [0.99937564849241, 0.02955911569083, -0.0193538595623, -0.0331527309231, 0.9739251814077, -0.2244340380877],
      "ImagePositionPatient": [-558.60668832738, -564.29550264462, 123.02004796423],
      "ImageType": [
        "ORIGINAL",
        "PRIMARY",
        "M",
        "ND",
        "NORM",
        "MOSAIC"
],
      "ImagedNucleus": "1H",
      "ImagingFrequency": 123.214497,
      "InPlanePhaseEncodingDirection": "COL",
      "MRAcquisitionType": "2D",
      "MagneticFieldStrength": 3.0,
      "Manufacturer": "SIEMENS",
      "ManufacturerModelName": "Skyra",
      "Modality": "MR",
      "NumberOfAverages": 1.0,
      "NumberOfPhaseEncodingSteps": 64,
      "PercentPhaseFieldOfView": 100.0,
      "PercentSampling": 100.0,
      "PerformedProcedureStepStartTime": "132400.594000",
      "PhotometricInterpretation": "MONOCHROME2",
      "PixelBandwidth": 1700.0,
      "PixelRepresentation": 0,
      "PixelSpacing": [3.0, 3.0],
      "ProtocolName": "fMRI_1",
      "RepetitionTime": 2340.0,
      "Rows": 384,
      "SAR": 0.17675195905266,
      "SamplesPerPixel": 1,
      "ScanOptions": "FS",
      "ScanningSequence": "EP",
      "SequenceName": "*epfid2d1_64",
      "SequenceVariant": "SK",
      "SeriesDescription": "fMRI_1",
      "SeriesNumber": 2,
      "SeriesTime": "133009.584000",
      "SliceLocation": -13.895502497917,
      "SliceThickness": 3.0,
      "SmallestImagePixelValue": 0,
      "SoftwareVersions": "syngo MR D13",
      "SpacingBetweenSlices": 3.3000000668198,
      "SpecificCharacterSet": "ISO_IR 100",
      "StudyID": "1",
      "StudyTime": "132400.543000",
      "TransmitCoilName": "Body",
      "VariableFlipAngleFlag": "N",
      "WindowCenterWidthExplanation": "Algo1",
      "dBdt": 0.0},
    "slices": {}
  },
  "time": {
    "samples": {
      "AcquisitionNumber": [1, 2, 3, 4, 5, 6, 7, 8, 9, 10, 11, 12, 13, 14, 15, 16, 17, 18, 19, 20, 21, 22, 23, 24, 25, 26, 27, 28, 29, 30, 31, 32, 33, 34, 35, 36, 37, 38, 39, 40, 41, 42, 43, 44, 45, 46, 47, 48, 49, 50, 51, 52, 53, 54, 55, 56, 57, 58, 59, 60, 61, 62, 63, 64, 65, 66, 67, 68, 69, 70, 71, 72, 73, 74, 75, 76, 77, 78, 79, 80, 81, 82, 83, 84, 85, 86, 87, 88, 89, 90, 91, 92, 93, 94, 95, 96, 97, 98, 99, 100, 101, 102, 103, 104, 105, 106, 107, 108, 109, 110, 111, 112, 113, 114, 115, 116, 117, 118, 119, 120, 121, 122, 123, 124, 125, 126, 127, 128],
      "AcquisitionTime": ["132921.202500", "132923.542500", "132925.882500", "132928.222500", "132930.562500", "132932.902500", "132935.242500", "132937.582500", "132939.922500", "132942.262500", "132944.602500", "132946.942500", "132949.282500", "132951.622500", "132953.962500", "132956.302500", "132958.642500", "133000.982500", "133003.322500", "133005.662500", "133008.002500", "133010.342500", "133012.682500", "133015.022500", "133017.362500", "133019.702500", "133022.042500", "133024.382500", "133026.722500", "133029.062500", "133031.402500", "133033.742500", "133036.082500", "133038.422500", "133040.762500", "133043.102500", "133045.442500", "133047.782500", "133050.122500", "133052.462500", "133054.802500", "133057.142500", "133059.482500", "133101.822500", "133104.162500", "133106.502500", "133108.842500", "133111.182500", "133113.522500", "133115.862500", "133118.202500", "133120.542500", "133122.882500", "133125.222500", "133127.562500", "133129.902500", "133132.242500", "133134.582500", "133136.922500", "133139.262500", "133141.602500", "133143.942500", "133146.282500", "133148.622500", "133150.962500", "133153.302500", "133155.642500", "133157.982500", "133200.322500", "133202.662500", "133205.002500", "133207.342500", "133209.682500", "133212.022500", "133214.362500", "133216.702500", "133219.042500", "133221.382500", "133223.722500", "133226.062500", "133228.402500", "133230.742500", "133233.082500", "133235.422500", "133237.762500", "133240.102500", "133242.442500", "133244.782500", "133247.122500", "133249.462500", "133251.802500", "133254.142500", "133256.482500", "133258.822500", "133301.162500", "133303.502500", "133305.842500", "133308.182500", "133310.522500", "133312.862500", "133315.202500", "133317.542500", "133319.882500", "133322.222500", "133324.562500", "133326.902500", "133329.242500", "133331.582500", "133333.922500", "133336.262500", "133338.602500", "133340.942500", "133343.282500", "133345.622500", "133347.962500", "133350.302500", "133352.642500", "133354.982500", "133357.322500", "133359.662500", "133402.002500", "133404.342500", "133406.682500", "133409.022500", "133411.362500", "133413.702500", "133416.042500", "133418.382500"],
      "ContentTime": ["133009.588000", "133009.592000", "133009.594000", "133009.597000", "133009.600000", "133009.602000", "133009.605000", "133009.607000", "133009.610000", "133009.613000", "133009.615000", "133009.618000", "133009.621000", "133009.623000", "133009.626000", "133009.632000", "133009.634000", "133009.637000", "133009.639000", "133009.642000", "133009.645000", "133109.582000", "133109.585000", "133109.588000", "133109.591000", "133109.593000", "133109.596000", "133109.598000", "133109.601000", "133109.604000", "133109.606000", "133109.609000", "133109.611000", "133109.614000", "133109.616000", "133109.619000", "133109.622000", "133109.624000", "133109.627000", "133109.630000", "133109.633000", "133109.635000", "133109.638000", "133109.641000", "133109.644000", "133109.646000", "133109.649000", "133209.582000", "133209.585000", "133209.588000", "133209.598000", "133209.601000", "133209.604000", "133209.606000", "133209.609000", "133209.611000", "133209.614000", "133209.617000", "133209.619000", "133209.622000", "133209.625000", "133209.627000", "133209.630000", "133209.633000", "133209.636000", "133209.638000", "133209.641000", "133209.643000", "133209.650000", "133209.653000", "133209.656000", "133209.658000", "133309.582000", "133309.585000", "133309.588000", "133309.590000", "133309.593000", "133309.596000", "133309.599000", "133309.602000", "133309.604000", "133309.607000", "133309.610000", "133309.612000", "133309.615000", "133309.618000", "133309.621000", "133309.624000", "133309.626000", "133309.633000", "133309.635000", "133309.638000", "133309.640000", "133309.643000", "133309.646000", "133309.648000", "133309.651000", "133309.654000", "133409.583000", "133409.586000", "133409.589000", "133409.592000", "133409.595000", "133409.598000", "133409.600000", "133409.603000", "133409.605000", "133409.608000", "133409.611000", "133409.613000", "133409.616000", "133409.619000", "133409.621000", "133409.624000", "133409.627000", "133409.629000", "133409.633000", "133409.637000", "133409.640000", "133409.642000", "133409.645000", "133409.647000", "133409.651000", "133421.250000", "133421.253000", "133421.256000", "133421.260000", "133421.265000"],
      "InstanceCreationTime": ["133009.588000", "133009.592000", "133009.594000", "133009.597000", "133009.600000", "133009.602000", "133009.605000", "133009.607000", "133009.610000", "133009.613000", "133009.615000", "133009.618000", "133009.621000", "133009.623000", "133009.626000", "133009.632000", "133009.634000", "133009.637000", "133009.639000", "133009.642000", "133009.645000", "133109.582000", "133109.585000", "133109.588000", "133109.591000", "133109.593000", "133109.596000", "133109.598000", "133109.601000", "133109.604000", "133109.606000", "133109.609000", "133109.611000", "133109.614000", "133109.616000", "133109.619000", "133109.622000", "133109.624000", "133109.627000", "133109.630000", "133109.633000", "133109.635000", "133109.638000", "133109.641000", "133109.644000", "133109.646000", "133109.649000", "133209.582000", "133209.585000", "133209.588000", "133209.598000", "133209.601000", "133209.604000", "133209.606000", "133209.609000", "133209.611000", "133209.614000", "133209.617000", "133209.619000", "133209.622000", "133209.625000", "133209.627000", "133209.630000", "133209.633000", "133209.636000", "133209.638000", "133209.641000", "133209.643000", "133209.650000", "133209.653000", "133209.656000", "133209.658000", "133309.582000", "133309.585000", "133309.588000", "133309.590000", "133309.593000", "133309.596000", "133309.599000", "133309.602000", "133309.604000", "133309.607000", "133309.610000", "133309.612000", "133309.615000", "133309.618000", "133309.621000", "133309.624000", "133309.626000", "133309.633000", "133309.635000", "133309.638000", "133309.640000", "133309.643000", "133309.646000", "133309.648000", "133309.651000", "133309.654000", "133409.583000", "133409.586000", "133409.589000", "133409.592000", "133409.595000", "133409.598000", "133409.600000", "133409.603000", "133409.605000", "133409.608000", "133409.611000", "133409.613000", "133409.616000", "133409.619000", "133409.621000", "133409.624000", "133409.627000", "133409.629000", "133409.633000", "133409.637000", "133409.640000", "133409.642000", "133409.645000", "133409.647000", "133409.651000", "133421.250000", "133421.253000", "133421.256000", "133421.260000", "133421.265000"],
      "InstanceNumber": [1, 2, 3, 4, 5, 6, 7, 8, 9, 10, 11, 12, 13, 14, 15, 16, 17, 18, 19, 20, 21, 22, 23, 24, 25, 26, 27, 28, 29, 30, 31, 32, 33, 34, 35, 36, 37, 38, 39, 40, 41, 42, 43, 44, 45, 46, 47, 48, 49, 50, 51, 52, 53, 54, 55, 56, 57, 58, 59, 60, 61, 62, 63, 64, 65, 66, 67, 68, 69, 70, 71, 72, 73, 74, 75, 76, 77, 78, 79, 80, 81, 82, 83, 84, 85, 86, 87, 88, 89, 90, 91, 92, 93, 94, 95, 96, 97, 98, 99, 100, 101, 102, 103, 104, 105, 106, 107, 108, 109, 110, 111, 112, 113, 114, 115, 116, 117, 118, 119, 120, 121, 122, 123, 124, 125, 126, 127, 128],
      "LargestImagePixelValue": [2188, 2224, 2399, 2627, 2249, 2536, 2440, 2565, 2233, 2505, 2491, 2516, 2652, 2247, 2482, 2816, 2692, 2607, 2636, 2158, 2100, 2411, 2635, 1776, 2515, 3130, 2096, 2344, 2720, 2568, 1680, 2087, 2555, 2546, 2015, 2678, 2618, 2262, 2688, 2349, 2557, 2471, 2350, 2610, 2718, 2522, 2885, 2542, 2604, 2086, 2271, 2099, 2370, 2155, 2473, 2769, 2468, 1656, 2066, 2600, 2619, 2742, 2244, 2298, 2383, 2518, 2174, 2443, 2378, 1681, 2591, 2564, 2778, 2615, 2390, 2570, 2386, 2231, 2436, 2202, 2530, 2545, 2933, 2173, 2125, 2504, 2943, 2567, 2557, 2397, 2518, 2554, 2505, 2908, 2538, 2576, 2314, 2402, 2153, 2484, 2795, 2194, 2343, 2032, 2761, 2726, 2608, 2520, 2458, 2262, 2439, 2388, 2281, 2552, 2325, 2465, 2245, 2111, 2456, 2403, 2838, 2469, 2943, 2656, 2468, 2595, 1918, 2005],
      "WindowCenter": [757.0, 756.0, 756.0, 756.0, 756.0, 757.0, 756.0, 755.0, 756.0, 755.0, 756.0, 752.0, 751.0, 754.0, 752.0, 755.0, 753.0, 752.0, 753.0, 754.0, 754.0, 756.0, 756.0, 753.0, 755.0, 753.0, 750.0, 749.0, 748.0, 751.0, 751.0, 756.0, 754.0, 756.0, 753.0, 754.0, 751.0, 756.0, 755.0, 758.0, 754.0, 752.0, 753.0, 757.0, 757.0, 758.0, 757.0, 754.0, 752.0, 757.0, 755.0, 755.0, 756.0, 756.0, 755.0, 755.0, 754.0, 753.0, 756.0, 756.0, 754.0, 754.0, 752.0, 754.0, 753.0, 754.0, 755.0, 757.0, 755.0, 749.0, 756.0, 756.0, 754.0, 750.0, 747.0, 749.0, 751.0, 755.0, 755.0, 758.0, 758.0, 759.0, 757.0, 760.0, 759.0, 760.0, 762.0, 758.0, 757.0, 756.0, 757.0, 755.0, 755.0, 755.0, 756.0, 758.0, 757.0, 758.0, 759.0, 760.0, 759.0, 759.0, 758.0, 760.0, 760.0, 759.0, 757.0, 757.0, 756.0, 759.0, 757.0, 760.0, 756.0, 756.0, 758.0, 759.0, 756.0, 758.0, 761.0, 760.0, 761.0, 758.0, 758.0, 753.0, 751.0, 752.0, 752.0, 756.0],
      "WindowWidth": [1597.0, 1593.0, 1595.0, 1595.0, 1595.0, 1597.0, 1593.0, 1591.0, 1593.0, 1593.0, 1594.0, 1585.0, 1583.0, 1588.0, 1583.0, 1591.0, 1586.0, 1583.0, 1585.0, 1588.0, 1587.0, 1594.0, 1595.0, 1586.0, 1590.0, 1588.0, 1578.0, 1577.0, 1574.0, 1582.0, 1578.0, 1594.0, 1588.0, 1593.0, 1584.0, 1589.0, 1583.0, 1593.0, 1590.0, 1597.0, 1592.0, 1581.0, 1584.0, 1595.0, 1595.0, 1599.0, 1594.0, 1585.0, 1581.0, 1595.0, 1592.0, 1591.0, 1592.0, 1593.0, 1592.0, 1591.0, 1589.0, 1585.0, 1592.0, 1595.0, 1588.0, 1588.0, 1582.0, 1588.0, 1587.0, 1589.0, 1591.0, 1594.0, 1594.0, 1576.0, 1593.0, 1591.0, 1588.0, 1580.0, 1572.0, 1576.0, 1581.0, 1593.0, 1592.0, 1599.0, 1598.0, 1601.0, 1596.0, 1601.0, 1601.0, 1606.0, 1607.0, 1600.0, 1597.0, 1595.0, 1596.0, 1592.0, 1592.0, 1592.0, 1593.0, 1598.0, 1596.0, 1599.0, 1599.0, 1602.0, 1599.0, 1602.0, 1599.0, 1602.0, 1604.0, 1599.0, 1594.0, 1596.0, 1594.0, 1599.0, 1597.0, 1602.0, 1594.0, 1595.0, 1597.0, 1602.0, 1595.0, 1597.0, 1604.0, 1602.0, 1606.0, 1600.0, 1598.0, 1587.0, 1581.0, 1585.0, 1584.0, 1592.0]
    },
    "slices": {}
  }
}