{
  "AcquisitionMatrixPE": 64,
  "AcquisitionNumber": 1,
  "AcquisitionTime": "09:28:34.357500",
  "BandwidthPerPixelPhaseEncode": 24.038,
  "BaseResolution": 64,
  "BodyPartExamined": "HEAD",
  "ConsistencyInfo": "N4_VD13A_LATEST_20120616",
  "ConversionSoftware": "dcm2niix",
  "ConversionSoftwareVersion": "v1.0.20181125  GCC6.3.0",
  "DerivedVendorReportedEchoSpacing": 0.000650012,
  "DeviceSerialNumber": "45250",
  "DwellTime": 4.6e-06,
  "EchoTime": 0.033,
  "EchoTrainLength": 64,
  "EffectiveEchoSpacing": 0.000650012,
  "FlipAngle": 90,
  "ImageOrientationPatientDICOM": [0.998234, 6.96532e-05, -0.0593996, -0.0034845, 0.998346, -0.0573878],
  "ImageType": [
    "ORIGINAL",
    "PRIMARY",
    "M",
    "ND",
    "NORM",
    "MOSAIC"
],
  "ImagingFrequency": 123.214,
  "InPlanePhaseEncodingDirectionDICOM": "COL",
  "InstitutionAddress": "Kopernikusstr._26_Graz_Graz_AT_8010",
  "InstitutionName": "KFU",
  "InstitutionalDepartmentName": "Department",
  "MRAcquisitionType": "2D",
  "MagneticFieldStrength": 3,
  "Manufacturer": "Siemens",
  "ManufacturersModelName": "Skyra",
  "Modality": "MR",
  "PartialFourier": 1,
  "PatientPosition": "HFS",
  "PercentPhaseFOV": 100,
  "PhaseEncodingDirection": "j-",
  "PhaseEncodingSteps": 64,
  "PhaseResolution": 1,
  "PixelBandwidth": 1700,
  "ProcedureStepDescription": "KFU_Entw-Psy",
  "ProtocolName": "fMRI_2",
  "PulseSequenceDetails": "%SiemensSeq%_ep2d_pace",
  "ReceiveCoilActiveElements": "HE1-4",
  "ReceiveCoilName": "HeadNeck_20",
  "ReconMatrixPE": 64,
  "RepetitionTime": 2.34,
  "SAR": 0.227035,
  "ScanOptions": "FS",
  "ScanningSequence": "EP",
  "SequenceName": "_epfid2d1_64",
  "SequenceVariant": "SK",
  "SeriesDescription": "fMRI_2",
  "SeriesNumber": 5,
  "ShimSetting": [-1643, -3715, -4352, 392, 307, 200, 415, -114],
  "SliceThickness": 3,
  "SliceTiming": [2.2525, 2.1825, 2.115, 2.0475, 1.9775, 1.91, 1.8425, 1.775, 1.705, 1.6375, 1.57, 1.5, 1.4325, 1.365, 1.2975, 1.2275, 1.16, 1.0925, 1.0225, 0.955, 0.8875, 0.8175, 0.75, 0.6825, 0.615, 0.545, 0.4775, 0.41, 0.34, 0.2725, 0.205, 0.1375, 0.0675, 0],
  "SoftwareVersions": "syngo_MR_D13",
  "SpacingBetweenSlices": 3.3,
  "StationName": "FBMTMR1",
  "TaskName": "read",
  "TotalReadoutTime": 0.0409508,
  "TxRefAmp": 433.456,
  "dcmmeta_affine": [
    [-2.9947028160095215, -0.010453498922288418, -0.19568122923374176, 98.84944915771484],
    [-0.0002089596091536805, 2.99503755569458, -0.18972821533679962, -115.87985229492188],
    [-0.17819876968860626, 0.1721632480621338, 3.288724899291992, 0.8698155879974365],
    [0.0, 0.0, 0.0, 1.0]
],
  "dcmmeta_reorient_transform": [
    [0.0, -1.0, 0.0, 63.0],
    [1.0, 0.0, 0.0, 0.0],
    [0.0, 0.0, 1.0, 0.0],
    [0.0, 0.0, 0.0, 1.0]
],
  "dcmmeta_shape": [64, 64, 34, 130],
  "dcmmeta_slice_dim": 2,
  "dcmmeta_version": 0.6,
  "global": {
    "const": {
      "AcquisitionMatrix": [64, 0, 0, 64],
      "AngioFlag": "N",
      "BitsAllocated": 16,
      "BitsStored": 12,
      "BodyPartExamined": "HEAD",
      "Columns": 384,
      "EchoNumbers": 1,
      "EchoTime": 33.0,
      "EchoTrainLength": 64,
      "FlipAngle": 90.0,
      "HighBit": 11,
      "ImageOrientationPatient": [0.99823428291469, 6.965320133e-05, -0.0593995922733, -0.0034844996513, 0.9983458840864, -0.0573877512186],
      "ImagePositionPatient": [-575.67077567241, -552.04697662922, 67.774025439567],
      "ImageType": [
        "ORIGINAL",
        "PRIMARY",
        "M",
        "ND",
        "NORM",
        "MOSAIC"
],
      "ImagedNucleus": "1H",
      "ImagingFrequency": 123.214302,
      "InPlanePhaseEncodingDirection": "COL",
      "MRAcquisitionType": "2D",
      "MagneticFieldStrength": 3.0,
      "Manufacturer": "SIEMENS",
      "ManufacturerModelName": "Skyra",
      "Modality": "MR",
      "NumberOfAverages": 1.0,
      "NumberOfPhaseEncodingSteps": 64,
      "PercentPhaseFieldOfView": 100.0,
      "PercentSampling": 100.0,
      "PerformedProcedureStepStartTime": "091718.684000",
      "PhotometricInterpretation": "MONOCHROME2",
      "PixelBandwidth": 1700.0,
      "PixelRepresentation": 0,
      "PixelSpacing": [3.0, 3.0],
      "ProtocolName": "fMRI_2",
      "RepetitionTime": 2340.0,
      "Rows": 384,
      "SAR": 0.2270348170098,
      "SamplesPerPixel": 1,
      "ScanOptions": "FS",
      "ScanningSequence": "EP",
      "SequenceName": "*epfid2d1_64",
      "SequenceVariant": "SK",
      "SeriesDescription": "fMRI_2",
      "SeriesNumber": 5,
      "SeriesTime": "092928.828000",
      "SliceLocation": 1.6676607287432,
      "SliceThickness": 3.0,
      "SmallestImagePixelValue": 0,
      "SoftwareVersions": "syngo MR D13",
      "SpacingBetweenSlices": 3.2999999958303,
      "SpecificCharacterSet": "ISO_IR 100",
      "StudyID": "1",
      "StudyTime": "091718.630000",
      "TransmitCoilName": "Body",
      "VariableFlipAngleFlag": "N",
      "WindowCenterWidthExplanation": "Algo1",
      "dBdt": 0.0},
    "slices": {}
  },
  "time": {
    "samples": {
      "AcquisitionNumber": [1, 2, 3, 4, 5, 6, 7, 8, 9, 10, 11, 12, 13, 14, 15, 16, 17, 18, 19, 20, 21, 22, 23, 24, 25, 26, 27, 28, 29, 30, 31, 32, 33, 34, 35, 36, 37, 38, 39, 40, 41, 42, 43, 44, 45, 46, 47, 48, 49, 50, 51, 52, 53, 54, 55, 56, 57, 58, 59, 60, 61, 62, 63, 64, 65, 66, 67, 68, 69, 70, 71, 72, 73, 74, 75, 76, 77, 78, 79, 80, 81, 82, 83, 84, 85, 86, 87, 88, 89, 90, 91, 92, 93, 94, 95, 96, 97, 98, 99, 100, 101, 102, 103, 104, 105, 106, 107, 108, 109, 110, 111, 112, 113, 114, 115, 116, 117, 118, 119, 120, 121, 122, 123, 124, 125, 126, 127, 128, 129, 130],
      "AcquisitionTime": ["092834.357500", "092836.697500", "092839.037500", "092841.377500", "092843.717500", "092846.057500", "092848.397500", "092850.737500", "092853.077500", "092855.417500", "092857.757500", "092900.097500", "092902.437500", "092904.777500", "092907.117500", "092909.457500", "092911.797500", "092914.137500", "092916.477500", "092918.817500", "092921.157500", "092923.497500", "092925.837500", "092928.177500", "092930.517500", "092932.857500", "092935.197500", "092937.537500", "092939.877500", "092942.217500", "092944.557500", "092946.897500", "092949.237500", "092951.577500", "092953.917500", "092956.257500", "092958.597500", "093000.937500", "093003.277500", "093005.617500", "093007.957500", "093010.297500", "093012.637500", "093014.977500", "093017.317500", "093019.657500", "093021.997500", "093024.337500", "093026.677500", "093029.017500", "093031.357500", "093033.697500", "093036.037500", "093038.377500", "093040.717500", "093043.057500", "093045.397500", "093047.737500", "093050.077500", "093052.417500", "093054.757500", "093057.097500", "093059.437500", "093101.777500", "093104.117500", "093106.457500", "093108.797500", "093111.137500", "093113.477500", "093115.817500", "093118.157500", "093120.497500", "093122.837500", "093125.177500", "093127.517500", "093129.857500", "093132.197500", "093134.537500", "093136.877500", "093139.217500", "093141.557500", "093143.897500", "093146.237500", "093148.577500", "093150.917500", "093153.257500", "093155.597500", "093157.937500", "093200.277500", "093202.617500", "093204.957500", "093207.297500", "093209.637500", "093211.977500", "093214.317500", "093216.657500", "093218.997500", "093221.337500", "093223.677500", "093226.017500", "093228.357500", "093230.697500", "093233.037500", "093235.377500", "093237.717500", "093240.057500", "093242.397500", "093244.737500", "093247.077500", "093249.417500", "093251.757500", "093254.097500", "093256.437500", "093258.777500", "093301.117500", "093303.457500", "093305.797500", "093308.137500", "093310.477500", "093312.817500", "093315.157500", "093317.497500", "093319.837500", "093322.177500", "093324.517500", "093326.857500", "093329.197500", "093331.537500", "093333.877500", "093336.217500"],
      "ContentTime": ["092928.833000", "092928.837000", "092928.839000", "092928.848000", "092928.850000", "092928.853000", "092928.856000", "092928.858000", "092928.861000", "092928.863000", "092928.866000", "092928.869000", "092928.871000", "092928.874000", "092928.877000", "092928.879000", "092928.882000", "092928.885000", "092928.887000", "092928.890000", "092928.893000", "092928.895000", "092928.898000", "092928.901000", "093028.826000", "093028.829000", "093028.832000", "093028.835000", "093028.838000", "093028.841000", "093028.843000", "093028.846000", "093028.849000", "093028.852000", "093028.855000", "093028.858000", "093028.861000", "093028.864000", "093028.866000", "093028.869000", "093028.872000", "093028.875000", "093028.878000", "093028.881000", "093028.884000", "093028.892000", "093028.895000", "093028.898000", "093028.901000", "093128.827000", "093128.831000", "093128.833000", "093128.836000", "093128.839000", "093128.842000", "093128.844000", "093128.847000", "093128.850000", "093128.852000", "093128.855000", "093128.858000", "093128.860000", "093128.863000", "093128.865000", "093128.868000", "093128.871000", "093128.873000", "093128.876000", "093128.879000", "093128.882000", "093128.884000", "093128.887000", "093128.890000", "093128.893000", "093128.896000", "093228.825000", "093228.828000", "093228.831000", "093228.834000", "093228.837000", "093228.840000", "093228.843000", "093228.846000", "093228.848000", "093228.851000", "093228.854000", "093228.857000", "093228.860000", "093228.863000", "093228.866000", "093228.868000", "093228.871000", "093228.874000", "093228.877000", "093228.880000", "093228.883000", "093228.885000", "093228.888000", "093228.891000", "093228.894000", "093248.827000", "093248.831000", "093248.834000", "093248.836000", "093248.839000", "093248.842000", "093248.845000", "093248.848000", "093248.851000", "093336.850000", "093336.853000", "093336.856000", "093336.858000", "093336.861000", "093336.865000", "093336.868000", "093336.871000", "093336.875000", "093336.878000", "093336.881000", "093336.884000", "093336.887000", "093336.889000", "093336.892000", "093336.895000", "093336.898000", "093336.901000", "093336.904000", "093336.906000", "093336.909000"],
      "InstanceCreationTime": ["092928.833000", "092928.837000", "092928.839000", "092928.848000", "092928.850000", "092928.853000", "092928.856000", "092928.858000", "092928.861000", "092928.863000", "092928.866000", "092928.869000", "092928.871000", "092928.874000", "092928.877000", "092928.879000", "092928.882000", "092928.885000", "092928.887000", "092928.890000", "092928.893000", "092928.895000", "092928.898000", "092928.901000", "093028.826000", "093028.829000", "093028.832000", "093028.835000", "093028.838000", "093028.841000", "093028.843000", "093028.846000", "093028.849000", "093028.852000", "093028.855000", "093028.858000", "093028.861000", "093028.864000", "093028.866000", "093028.869000", "093028.872000", "093028.875000", "093028.878000", "093028.881000", "093028.884000", "093028.892000", "093028.895000", "093028.898000", "093028.901000", "093128.827000", "093128.831000", "093128.833000", "093128.836000", "093128.839000", "093128.842000", "093128.844000", "093128.847000", "093128.850000", "093128.852000", "093128.855000", "093128.858000", "093128.860000", "093128.863000", "093128.865000", "093128.868000", "093128.871000", "093128.873000", "093128.876000", "093128.879000", "093128.882000", "093128.884000", "093128.887000", "093128.890000", "093128.893000", "093128.896000", "093228.825000", "093228.828000", "093228.831000", "093228.834000", "093228.837000", "093228.840000", "093228.843000", "093228.846000", "093228.848000", "093228.851000", "093228.854000", "093228.857000", "093228.860000", "093228.863000", "093228.866000", "093228.868000", "093228.871000", "093228.874000", "093228.877000", "093228.880000", "093228.883000", "093228.885000", "093228.888000", "093228.891000", "093228.894000", "093248.827000", "093248.831000", "093248.834000", "093248.836000", "093248.839000", "093248.842000", "093248.845000", "093248.848000", "093248.851000", "093336.850000", "093336.853000", "093336.856000", "093336.858000", "093336.861000", "093336.865000", "093336.868000", "093336.871000", "093336.875000", "093336.878000", "093336.881000", "093336.884000", "093336.887000", "093336.889000", "093336.892000", "093336.895000", "093336.898000", "093336.901000", "093336.904000", "093336.906000", "093336.909000"],
      "InstanceNumber": [1, 2, 3, 4, 5, 6, 7, 8, 9, 10, 11, 12, 13, 14, 15, 16, 17, 18, 19, 20, 21, 22, 23, 24, 25, 26, 27, 28, 29, 30, 31, 32, 33, 34, 35, 36, 37, 38, 39, 40, 41, 42, 43, 44, 45, 46, 47, 48, 49, 50, 51, 52, 53, 54, 55, 56, 57, 58, 59, 60, 61, 62, 63, 64, 65, 66, 67, 68, 69, 70, 71, 72, 73, 74, 75, 76, 77, 78, 79, 80, 81, 82, 83, 84, 85, 86, 87, 88, 89, 90, 91, 92, 93, 94, 95, 96, 97, 98, 99, 100, 101, 102, 103, 104, 105, 106, 107, 108, 109, 110, 111, 112, 113, 114, 115, 116, 117, 118, 119, 120, 121, 122, 123, 124, 125, 126, 127, 128, 129, 130],
      "LargestImagePixelValue": [2166, 2344, 2163, 2194, 2204, 2273, 2473, 2369, 1894, 1779, 2403, 2899, 2482, 1852, 1765, 1759, 1762, 2340, 2391, 1910, 1863, 2005, 2271, 1782, 1768, 1898, 2252, 2153, 2186, 1783, 1796, 1981, 2517, 2568, 1880, 2152, 2640, 2157, 1823, 1846, 1943, 1868, 1885, 1985, 2440, 2202, 1950, 2392, 2263, 1876, 2215, 2461, 1888, 1871, 2004, 2394, 2222, 2225, 1893, 2326, 1979, 1834, 2123, 2055, 2042, 1954, 1948, 2591, 2249, 2332, 1817, 1748, 1862, 2547, 2428, 2551, 2353, 1858, 1893, 1839, 2108, 2310, 2239, 1890, 1863, 2150, 1909, 1913, 1832, 1873, 2150, 2137, 1948, 2375, 2141, 2145, 2665, 2176, 2116, 2363, 2295, 1913, 2391, 2622, 2250, 2380, 1953, 2064, 1793, 1780, 1823, 1855, 2563, 2251, 2229, 2088, 1961, 1835, 1877, 2223, 1989, 1896, 2234, 2314, 2289, 1786, 1828, 1759, 1800, 1818],
      "WindowCenter": [820.0, 817.0, 815.0, 817.0, 814.0, 814.0, 813.0, 812.0, 810.0, 813.0, 803.0, 806.0, 805.0, 809.0, 807.0, 811.0, 800.0, 787.0, 799.0, 801.0, 791.0, 797.0, 805.0, 808.0, 804.0, 791.0, 805.0, 802.0, 797.0, 800.0, 799.0, 798.0, 804.0, 805.0, 795.0, 790.0, 796.0, 799.0, 801.0, 807.0, 808.0, 808.0, 808.0, 812.0, 814.0, 811.0, 810.0, 811.0, 811.0, 811.0, 814.0, 812.0, 812.0, 817.0, 814.0, 815.0, 812.0, 809.0, 809.0, 810.0, 808.0, 809.0, 809.0, 811.0, 812.0, 825.0, 818.0, 809.0, 821.0, 810.0, 803.0, 797.0, 795.0, 782.0, 802.0, 792.0, 794.0, 799.0, 792.0, 797.0, 798.0, 801.0, 807.0, 807.0, 809.0, 812.0, 811.0, 814.0, 806.0, 813.0, 814.0, 817.0, 815.0, 816.0, 813.0, 819.0, 818.0, 814.0, 812.0, 814.0, 810.0, 811.0, 804.0, 804.0, 804.0, 808.0, 801.0, 810.0, 809.0, 812.0, 813.0, 812.0, 807.0, 803.0, 807.0, 808.0, 805.0, 806.0, 797.0, 813.0, 810.0, 815.0, 811.0, 808.0, 807.0, 807.0, 810.0, 810.0, 812.0, 814.0],
      "WindowWidth": [1739.0, 1731.0, 1729.0, 1732.0, 1726.0, 1724.0, 1721.0, 1721.0, 1715.0, 1720.0, 1702.0, 1697.0, 1694.0, 1712.0, 1703.0, 1714.0, 1695.0, 1665.0, 1682.0, 1679.0, 1663.0, 1676.0, 1698.0, 1710.0, 1697.0, 1678.0, 1700.0, 1689.0, 1674.0, 1687.0, 1686.0, 1689.0, 1697.0, 1701.0, 1670.0, 1670.0, 1681.0, 1680.0, 1685.0, 1708.0, 1712.0, 1706.0, 1708.0, 1717.0, 1725.0, 1717.0, 1715.0, 1717.0, 1717.0, 1715.0, 1723.0, 1719.0, 1717.0, 1730.0, 1727.0, 1726.0, 1722.0, 1712.0, 1715.0, 1711.0, 1704.0, 1709.0, 1709.0, 1717.0, 1714.0, 1749.0, 1740.0, 1716.0, 1740.0, 1714.0, 1694.0, 1691.0, 1686.0, 1663.0, 1693.0, 1665.0, 1667.0, 1691.0, 1670.0, 1674.0, 1687.0, 1694.0, 1706.0, 1705.0, 1709.0, 1717.0, 1714.0, 1725.0, 1705.0, 1722.0, 1721.0, 1732.0, 1724.0, 1731.0, 1724.0, 1735.0, 1734.0, 1723.0, 1716.0, 1725.0, 1720.0, 1714.0, 1705.0, 1692.0, 1694.0, 1709.0, 1688.0, 1714.0, 1708.0, 1719.0, 1722.0, 1716.0, 1711.0, 1695.0, 1699.0, 1709.0, 1701.0, 1701.0, 1689.0, 1721.0, 1714.0, 1724.0, 1718.0, 1709.0, 1707.0, 1706.0, 1712.0, 1714.0, 1717.0, 1722.0]
    },
    "slices": {}
  }
}