{
  "AcquisitionMatrixPE": 64,
  "AcquisitionNumber": 1,
  "AcquisitionTime": "09:22:26.667500",
  "BandwidthPerPixelPhaseEncode": 24.038,
  "BaseResolution": 64,
  "BodyPartExamined": "HEAD",
  "ConsistencyInfo": "N4_VD13A_LATEST_20120616",
  "ConversionSoftware": "dcm2niix",
  "ConversionSoftwareVersion": "v1.0.20181125  GCC6.3.0",
  "DerivedVendorReportedEchoSpacing": 0.000650012,
  "DeviceSerialNumber": "45250",
  "DwellTime": 4.6e-06,
  "EchoTime": 0.033,
  "EchoTrainLength": 64,
  "EffectiveEchoSpacing": 0.000650012,
  "FlipAngle": 90,
  "ImageOrientationPatientDICOM": [0.998234, 6.96532e-05, -0.0593996, -0.0034845, 0.998346, -0.0573878],
  "ImageType": [
    "ORIGINAL",
    "PRIMARY",
    "M",
    "ND",
    "NORM",
    "MOSAIC"
],
  "ImagingFrequency": 123.214,
  "InPlanePhaseEncodingDirectionDICOM": "COL",
  "InstitutionAddress": "Kopernikusstr._26_Graz_Graz_AT_8010",
  "InstitutionName": "KFU",
  "InstitutionalDepartmentName": "Department",
  "MRAcquisitionType": "2D",
  "MagneticFieldStrength": 3,
  "Manufacturer": "Siemens",
  "ManufacturersModelName": "Skyra",
  "Modality": "MR",
  "PartialFourier": 1,
  "PatientPosition": "HFS",
  "PercentPhaseFOV": 100,
  "PhaseEncodingDirection": "j-",
  "PhaseEncodingSteps": 64,
  "PhaseResolution": 1,
  "PixelBandwidth": 1700,
  "ProcedureStepDescription": "KFU_Entw-Psy",
  "ProtocolName": "fMRI_1",
  "PulseSequenceDetails": "%SiemensSeq%_ep2d_pace",
  "ReceiveCoilActiveElements": "HE1-4",
  "ReceiveCoilName": "HeadNeck_20",
  "ReconMatrixPE": 64,
  "RepetitionTime": 2.34,
  "SAR": 0.227035,
  "ScanOptions": "FS",
  "ScanningSequence": "EP",
  "SequenceName": "_epfid2d1_64",
  "SequenceVariant": "SK",
  "SeriesDescription": "fMRI_1",
  "SeriesNumber": 2,
  "ShimSetting": [-1643, -3715, -4352, 392, 307, 200, 415, -114],
  "SliceThickness": 3,
  "SliceTiming": [2.25, 2.1825, 2.115, 2.045, 1.9775, 1.91, 1.8425, 1.7725, 1.705, 1.6375, 1.5675, 1.5, 1.4325, 1.365, 1.295, 1.2275, 1.16, 1.09, 1.0225, 0.955, 0.8875, 0.8175, 0.75, 0.6825, 0.6125, 0.545, 0.4775, 0.4075, 0.34, 0.2725, 0.205, 0.135, 0.0675, 0],
  "SoftwareVersions": "syngo_MR_D13",
  "SpacingBetweenSlices": 3.3,
  "StationName": "FBMTMR1",
  "TaskName": "read",
  "TotalReadoutTime": 0.0409508,
  "TxRefAmp": 433.456,
  "dcmmeta_affine": [
    [-2.9947028160095215, -0.010453498922288418, -0.19568122923374176, 98.84944915771484],
    [-0.0002089596091536805, 2.99503755569458, -0.18972821533679962, -115.87985229492188],
    [-0.17819876968860626, 0.1721632480621338, 3.288724899291992, 0.8698155879974365],
    [0.0, 0.0, 0.0, 1.0]
],
  "dcmmeta_reorient_transform": [
    [0.0, -1.0, 0.0, 63.0],
    [1.0, 0.0, 0.0, 0.0],
    [0.0, 0.0, 1.0, 0.0],
    [0.0, 0.0, 0.0, 1.0]
],
  "dcmmeta_shape": [64, 64, 34, 128],
  "dcmmeta_slice_dim": 2,
  "dcmmeta_version": 0.6,
  "global": {
    "const": {
      "AcquisitionMatrix": [64, 0, 0, 64],
      "AngioFlag": "N",
      "BitsAllocated": 16,
      "BitsStored": 12,
      "BodyPartExamined": "HEAD",
      "Columns": 384,
      "EchoNumbers": 1,
      "EchoTime": 33.0,
      "EchoTrainLength": 64,
      "FlipAngle": 90.0,
      "HighBit": 11,
      "ImageOrientationPatient": [0.99823428291469, 6.965320133e-05, -0.0593995922733, -0.0034844996513, 0.9983458840864, -0.0573877512186],
      "ImagePositionPatient": [-575.67077567241, -552.04697662922, 67.774025439567],
      "ImageType": [
        "ORIGINAL",
        "PRIMARY",
        "M",
        "ND",
        "NORM",
        "MOSAIC"
],
      "ImagedNucleus": "1H",
      "ImagingFrequency": 123.214298,
      "InPlanePhaseEncodingDirection": "COL",
      "MRAcquisitionType": "2D",
      "MagneticFieldStrength": 3.0,
      "Manufacturer": "SIEMENS",
      "ManufacturerModelName": "Skyra",
      "Modality": "MR",
      "NumberOfAverages": 1.0,
      "NumberOfPhaseEncodingSteps": 64,
      "PercentPhaseFieldOfView": 100.0,
      "PercentSampling": 100.0,
      "PerformedProcedureStepStartTime": "091718.684000",
      "PhotometricInterpretation": "MONOCHROME2",
      "PixelBandwidth": 1700.0,
      "PixelRepresentation": 0,
      "PixelSpacing": [3.0, 3.0],
      "ProtocolName": "fMRI_1",
      "RepetitionTime": 2340.0,
      "Rows": 384,
      "SAR": 0.2270348170098,
      "SamplesPerPixel": 1,
      "ScanOptions": "FS",
      "ScanningSequence": "EP",
      "SequenceName": "*epfid2d1_64",
      "SequenceVariant": "SK",
      "SeriesDescription": "fMRI_1",
      "SeriesNumber": 2,
      "SeriesTime": "092251.566000",
      "SliceLocation": 1.6676607287432,
      "SliceThickness": 3.0,
      "SmallestImagePixelValue": 0,
      "SoftwareVersions": "syngo MR D13",
      "SpacingBetweenSlices": 3.2999999958303,
      "SpecificCharacterSet": "ISO_IR 100",
      "StudyID": "1",
      "StudyTime": "091718.630000",
      "TransmitCoilName": "Body",
      "VariableFlipAngleFlag": "N",
      "WindowCenterWidthExplanation": "Algo1",
      "dBdt": 0.0},
    "slices": {}
  },
  "time": {
    "samples": {
      "AcquisitionNumber": [1, 2, 3, 4, 5, 6, 7, 8, 9, 10, 11, 12, 13, 14, 15, 16, 17, 18, 19, 20, 21, 22, 23, 24, 25, 26, 27, 28, 29, 30, 31, 32, 33, 34, 35, 36, 37, 38, 39, 40, 41, 42, 43, 44, 45, 46, 47, 48, 49, 50, 51, 52, 53, 54, 55, 56, 57, 58, 59, 60, 61, 62, 63, 64, 65, 66, 67, 68, 69, 70, 71, 72, 73, 74, 75, 76, 77, 78, 79, 80, 81, 82, 83, 84, 85, 86, 87, 88, 89, 90, 91, 92, 93, 94, 95, 96, 97, 98, 99, 100, 101, 102, 103, 104, 105, 106, 107, 108, 109, 110, 111, 112, 113, 114, 115, 116, 117, 118, 119, 120, 121, 122, 123, 124, 125, 126, 127, 128],
      "AcquisitionTime": ["092226.667500", "092229.007500", "092231.347500", "092233.687500", "092236.027500", "092238.367500", "092240.707500", "092243.047500", "092245.387500", "092247.727500", "092250.067500", "092252.407500", "092254.747500", "092257.087500", "092259.427500", "092301.767500", "092304.107500", "092306.447500", "092308.787500", "092311.127500", "092313.467500", "092315.807500", "092318.147500", "092320.487500", "092322.827500", "092325.167500", "092327.507500", "092329.847500", "092332.187500", "092334.527500", "092336.867500", "092339.207500", "092341.547500", "092343.887500", "092346.227500", "092348.567500", "092350.907500", "092353.247500", "092355.587500", "092357.927500", "092400.267500", "092402.607500", "092404.947500", "092407.287500", "092409.627500", "092411.967500", "092414.307500", "092416.647500", "092418.987500", "092421.327500", "092423.667500", "092426.007500", "092428.347500", "092430.687500", "092433.027500", "092435.367500", "092437.707500", "092440.047500", "092442.387500", "092444.727500", "092447.067500", "092449.407500", "092451.747500", "092454.087500", "092456.427500", "092458.767500", "092501.107500", "092503.447500", "092505.787500", "092508.127500", "092510.467500", "092512.807500", "092515.147500", "092517.487500", "092519.827500", "092522.167500", "092524.507500", "092526.847500", "092529.187500", "092531.527500", "092533.867500", "092536.207500", "092538.547500", "092540.887500", "092543.227500", "092545.567500", "092547.907500", "092550.247500", "092552.587500", "092554.927500", "092557.267500", "092559.607500", "092601.947500", "092604.287500", "092606.627500", "092608.967500", "092611.307500", "092613.647500", "092615.987500", "092618.327500", "092620.667500", "092623.007500", "092625.347500", "092627.687500", "092630.027500", "092632.367500", "092634.707500", "092637.047500", "092639.387500", "092641.727500", "092644.067500", "092646.407500", "092648.747500", "092651.087500", "092653.427500", "092655.767500", "092658.107500", "092700.447500", "092702.787500", "092705.127500", "092707.467500", "092709.807500", "092712.147500", "092714.487500", "092716.827500", "092719.167500", "092721.507500", "092723.847500"],
      "ContentTime": ["092251.571000", "092251.574000", "092251.577000", "092251.580000", "092251.583000", "092251.586000", "092251.588000", "092251.591000", "092251.594000", "092251.608000", "092251.611000", "092351.563000", "092351.566000", "092351.569000", "092351.571000", "092351.579000", "092351.582000", "092351.584000", "092351.587000", "092351.590000", "092351.592000", "092351.595000", "092351.597000", "092351.600000", "092351.603000", "092351.605000", "092351.608000", "092351.611000", "092351.613000", "092351.616000", "092351.618000", "092351.621000", "092351.624000", "092351.626000", "092351.629000", "092351.631000", "092451.563000", "092451.567000", "092451.569000", "092451.572000", "092451.574000", "092451.577000", "092451.580000", "092451.583000", "092451.586000", "092451.593000", "092451.596000", "092451.599000", "092451.601000", "092451.604000", "092451.607000", "092451.610000", "092451.612000", "092451.615000", "092451.618000", "092451.621000", "092451.623000", "092451.626000", "092451.629000", "092451.631000", "092451.635000", "092451.638000", "092551.562000", "092551.565000", "092551.568000", "092551.571000", "092551.573000", "092551.576000", "092551.578000", "092551.581000", "092551.584000", "092551.586000", "092551.589000", "092551.591000", "092551.594000", "092551.597000", "092551.600000", "092551.610000", "092551.612000", "092551.615000", "092551.617000", "092551.620000", "092551.623000", "092551.625000", "092551.628000", "092551.630000", "092551.633000", "092551.636000", "092651.563000", "092651.566000", "092651.568000", "092651.571000", "092651.574000", "092651.576000", "092651.579000", "092651.582000", "092651.584000", "092651.587000", "092651.589000", "092651.592000", "092651.595000", "092651.598000", "092651.600000", "092651.603000", "092651.605000", "092651.608000", "092651.611000", "092651.613000", "092651.616000", "092651.619000", "092651.621000", "092651.624000", "092651.626000", "092727.063000", "092727.067000", "092727.070000", "092727.074000", "092727.078000", "092727.081000", "092727.087000", "092727.090000", "092727.093000", "092727.096000", "092727.099000", "092727.102000", "092727.104000", "092727.107000", "092727.111000"],
      "InstanceCreationTime": ["092251.571000", "092251.574000", "092251.577000", "092251.580000", "092251.583000", "092251.586000", "092251.588000", "092251.591000", "092251.594000", "092251.608000", "092251.611000", "092351.563000", "092351.566000", "092351.569000", "092351.571000", "092351.579000", "092351.582000", "092351.584000", "092351.587000", "092351.590000", "092351.592000", "092351.595000", "092351.597000", "092351.600000", "092351.603000", "092351.605000", "092351.608000", "092351.611000", "092351.613000", "092351.616000", "092351.618000", "092351.621000", "092351.624000", "092351.626000", "092351.629000", "092351.631000", "092451.563000", "092451.567000", "092451.569000", "092451.572000", "092451.574000", "092451.577000", "092451.580000", "092451.583000", "092451.586000", "092451.593000", "092451.596000", "092451.599000", "092451.601000", "092451.604000", "092451.607000", "092451.610000", "092451.612000", "092451.615000", "092451.618000", "092451.621000", "092451.623000", "092451.626000", "092451.629000", "092451.631000", "092451.635000", "092451.638000", "092551.562000", "092551.565000", "092551.568000", "092551.571000", "092551.573000", "092551.576000", "092551.578000", "092551.581000", "092551.584000", "092551.586000", "092551.589000", "092551.591000", "092551.594000", "092551.597000", "092551.600000", "092551.610000", "092551.612000", "092551.615000", "092551.617000", "092551.620000", "092551.623000", "092551.625000", "092551.628000", "092551.630000", "092551.633000", "092551.636000", "092651.563000", "092651.566000", "092651.568000", "092651.571000", "092651.574000", "092651.576000", "092651.579000", "092651.582000", "092651.584000", "092651.587000", "092651.589000", "092651.592000", "092651.595000", "092651.598000", "092651.600000", "092651.603000", "092651.605000", "092651.608000", "092651.611000", "092651.613000", "092651.616000", "092651.619000", "092651.621000", "092651.624000", "092651.626000", "092727.063000", "092727.067000", "092727.070000", "092727.074000", "092727.078000", "092727.081000", "092727.087000", "092727.090000", "092727.093000", "092727.096000", "092727.099000", "092727.102000", "092727.104000", "092727.107000", "092727.111000"],
      "InstanceNumber": [1, 2, 3, 4, 5, 6, 7, 8, 9, 10, 11, 12, 13, 14, 15, 16, 17, 18, 19, 20, 21, 22, 23, 24, 25, 26, 27, 28, 29, 30, 31, 32, 33, 34, 35, 36, 37, 38, 39, 40, 41, 42, 43, 44, 45, 46, 47, 48, 49, 50, 51, 52, 53, 54, 55, 56, 57, 58, 59, 60, 61, 62, 63, 64, 65, 66, 67, 68, 69, 70, 71, 72, 73, 74, 75, 76, 77, 78, 79, 80, 81, 82, 83, 84, 85, 86, 87, 88, 89, 90, 91, 92, 93, 94, 95, 96, 97, 98, 99, 100, 101, 102, 103, 104, 105, 106, 107, 108, 109, 110, 111, 112, 113, 114, 115, 116, 117, 118, 119, 120, 121, 122, 123, 124, 125, 126, 127, 128],
      "LargestImagePixelValue": [2894, 2628, 2590, 2489, 2831, 3142, 3068, 1910, 1790, 2263, 1988, 2286, 1875, 2583, 2815, 3110, 2655, 2095, 1937, 2305, 2657, 2187, 2013, 2192, 2169, 2357, 2343, 2512, 1880, 2389, 2474, 2595, 2617, 2183, 2038, 1938, 1816, 1924, 2260, 1891, 1902, 1899, 2643, 2525, 1946, 1843, 2486, 1845, 1941, 1921, 2135, 1797, 1778, 1748, 2246, 2267, 1800, 2920, 2526, 2918, 2899, 2490, 2524, 1884, 2076, 2232, 2109, 1977, 1824, 1824, 1801, 1907, 2342, 2666, 2212, 2805, 2689, 2348, 2720, 2652, 1781, 1816, 2063, 1757, 2140, 2525, 2542, 2861, 2523, 2429, 2185, 2886, 2493, 1896, 2172, 2215, 2568, 2226, 1814, 1816, 2453, 2742, 2146, 1810, 2008, 2121, 1806, 1805, 1818, 1739, 2037, 2446, 2105, 2668, 2735, 1800, 2317, 2877, 2421, 3072, 2567, 2452, 1904, 1683, 2373, 2609, 2015, 1825],
      "WindowCenter": [823.0, 819.0, 818.0, 818.0, 816.0, 815.0, 812.0, 811.0, 813.0, 814.0, 817.0, 818.0, 816.0, 818.0, 816.0, 816.0, 815.0, 816.0, 814.0, 820.0, 811.0, 811.0, 814.0, 819.0, 816.0, 814.0, 814.0, 814.0, 815.0, 809.0, 813.0, 809.0, 802.0, 806.0, 801.0, 807.0, 808.0, 812.0, 807.0, 815.0, 817.0, 811.0, 798.0, 802.0, 797.0, 812.0, 803.0, 804.0, 803.0, 808.0, 809.0, 811.0, 811.0, 812.0, 810.0, 813.0, 809.0, 798.0, 804.0, 805.0, 799.0, 806.0, 805.0, 803.0, 803.0, 808.0, 804.0, 795.0, 796.0, 809.0, 810.0, 811.0, 810.0, 808.0, 808.0, 813.0, 811.0, 807.0, 811.0, 808.0, 811.0, 810.0, 810.0, 812.0, 815.0, 815.0, 816.0, 815.0, 813.0, 812.0, 813.0, 814.0, 812.0, 816.0, 813.0, 813.0, 813.0, 813.0, 817.0, 803.0, 808.0, 800.0, 800.0, 809.0, 810.0, 807.0, 805.0, 813.0, 812.0, 813.0, 814.0, 814.0, 809.0, 814.0, 812.0, 815.0, 805.0, 803.0, 810.0, 807.0, 800.0, 800.0, 802.0, 789.0, 799.0, 795.0, 793.0, 811.0],
      "WindowWidth": [1750.0, 1738.0, 1737.0, 1738.0, 1731.0, 1729.0, 1724.0, 1720.0, 1723.0, 1728.0, 1733.0, 1736.0, 1731.0, 1737.0, 1732.0, 1732.0, 1729.0, 1732.0, 1725.0, 1741.0, 1719.0, 1717.0, 1725.0, 1737.0, 1731.0, 1725.0, 1725.0, 1725.0, 1728.0, 1719.0, 1724.0, 1712.0, 1693.0, 1708.0, 1693.0, 1710.0, 1710.0, 1721.0, 1712.0, 1726.0, 1726.0, 1726.0, 1691.0, 1683.0, 1671.0, 1719.0, 1700.0, 1700.0, 1699.0, 1708.0, 1714.0, 1718.0, 1717.0, 1725.0, 1715.0, 1717.0, 1711.0, 1692.0, 1703.0, 1702.0, 1686.0, 1704.0, 1697.0, 1700.0, 1700.0, 1713.0, 1696.0, 1678.0, 1679.0, 1713.0, 1714.0, 1717.0, 1716.0, 1709.0, 1711.0, 1724.0, 1717.0, 1709.0, 1719.0, 1712.0, 1717.0, 1716.0, 1718.0, 1720.0, 1728.0, 1730.0, 1729.0, 1728.0, 1723.0, 1722.0, 1725.0, 1727.0, 1722.0, 1732.0, 1725.0, 1724.0, 1723.0, 1725.0, 1728.0, 1709.0, 1714.0, 1681.0, 1683.0, 1712.0, 1715.0, 1707.0, 1703.0, 1725.0, 1722.0, 1722.0, 1724.0, 1728.0, 1714.0, 1726.0, 1722.0, 1721.0, 1709.0, 1697.0, 1712.0, 1710.0, 1691.0, 1690.0, 1687.0, 1678.0, 1686.0, 1665.0, 1661.0, 1720.0]
    },
    "slices": {}
  }
}