{
  "AcquisitionMatrixPE": 64,
  "AcquisitionNumber": 1,
  "AcquisitionTime": "10:55:41.062500",
  "BandwidthPerPixelPhaseEncode": 24.038,
  "BaseResolution": 64,
  "BodyPartExamined": "HEAD",
  "ConsistencyInfo": "N4_VD13A_LATEST_20120616",
  "ConversionSoftware": "dcm2niix",
  "ConversionSoftwareVersion": "v1.0.20181125  GCC6.3.0",
  "DerivedVendorReportedEchoSpacing": 0.000650012,
  "DeviceSerialNumber": "45250",
  "DwellTime": 4.6e-06,
  "EchoTime": 0.033,
  "EchoTrainLength": 64,
  "EffectiveEchoSpacing": 0.000650012,
  "FlipAngle": 90,
  "ImageOrientationPatientDICOM": [0.999376, 0.0294574, -0.0195084, -0.0331527, 0.972737, -0.22953],
  "ImageType": [
    "ORIGINAL",
    "PRIMARY",
    "M",
    "ND",
    "NORM",
    "MOSAIC"
],
  "ImagingFrequency": 123.22,
  "InPlanePhaseEncodingDirectionDICOM": "COL",
  "InstitutionAddress": "Kopernikusstr._26_Graz_Graz_AT_8010",
  "InstitutionName": "KFU",
  "InstitutionalDepartmentName": "Department",
  "MRAcquisitionType": "2D",
  "MagneticFieldStrength": 3,
  "Manufacturer": "Siemens",
  "ManufacturersModelName": "Skyra",
  "Modality": "MR",
  "PartialFourier": 1,
  "PatientPosition": "HFS",
  "PercentPhaseFOV": 100,
  "PhaseEncodingDirection": "j-",
  "PhaseEncodingSteps": 64,
  "PhaseResolution": 1,
  "PixelBandwidth": 1700,
  "ProcedureStepDescription": "KFU_Entw-Psy",
  "ProtocolName": "fMRI_1",
  "PulseSequenceDetails": "%SiemensSeq%_ep2d_pace",
  "ReceiveCoilActiveElements": "HE1-4",
  "ReceiveCoilName": "HeadNeck_20",
  "ReconMatrixPE": 64,
  "RepetitionTime": 2.34,
  "SAR": 0.143251,
  "ScanOptions": "FS",
  "ScanningSequence": "EP",
  "SequenceName": "_epfid2d1_64",
  "SequenceVariant": "SK",
  "SeriesDescription": "fMRI_1",
  "SeriesNumber": 2,
  "ShimSetting": [-1650, -3683, -4243, 483, 524, -12, 425, -278],
  "SliceThickness": 3,
  "SliceTiming": [2.25, 2.1825, 2.115, 2.045, 1.9775, 1.91, 1.8425, 1.7725, 1.705, 1.6375, 1.5675, 1.5, 1.4325, 1.365, 1.295, 1.2275, 1.16, 1.09, 1.0225, 0.955, 0.885, 0.8175, 0.75, 0.6825, 0.6125, 0.545, 0.4775, 0.4075, 0.34, 0.2725, 0.205, 0.135, 0.0675, 0],
  "SoftwareVersions": "syngo_MR_D13",
  "SpacingBetweenSlices": 3.3,
  "StationName": "FBMTMR1",
  "TaskName": "read",
  "TotalReadoutTime": 0.0409508,
  "TxRefAmp": 331.545,
  "dcmmeta_affine": [
    [-2.998126983642578, -0.09945812821388245, -0.04030996188521385, 98.559814453125],
    [-0.08837206661701202, 2.918210029602051, -0.7591116428375244, -102.1952896118164],
    [-0.05852508172392845, 0.6885911822319031, 3.211249828338623, -12.932154655456543],
    [0.0, 0.0, 0.0, 1.0]
],
  "dcmmeta_reorient_transform": [
    [0.0, -1.0, 0.0, 63.0],
    [1.0, 0.0, 0.0, 0.0],
    [0.0, 0.0, 1.0, 0.0],
    [0.0, 0.0, 0.0, 1.0]
],
  "dcmmeta_shape": [64, 64, 34, 128],
  "dcmmeta_slice_dim": 2,
  "dcmmeta_version": 0.6,
  "global": {
    "const": {
      "AcquisitionMatrix": [64, 0, 0, 64],
      "AngioFlag": "N",
      "BitsAllocated": 16,
      "BitsStored": 12,
      "BodyPartExamined": "HEAD",
      "Columns": 384,
      "EchoNumbers": 1,
      "EchoTime": 33.0,
      "EchoTrainLength": 64,
      "FlipAngle": 90.0,
      "HighBit": 11,
      "ImageOrientationPatient": [0.99937564916752, 0.02945735451839, -0.0195083601507, -0.0331527103547, 0.97273670649083, -0.2295303850071],
      "ImagePositionPatient": [-556.08096590064, -562.7050966996, 149.9876861722],
      "ImageType": [
        "ORIGINAL",
        "PRIMARY",
        "M",
        "ND",
        "NORM",
        "MOSAIC"
],
      "ImagedNucleus": "1H",
      "ImagingFrequency": 123.220036,
      "InPlanePhaseEncodingDirection": "COL",
      "MRAcquisitionType": "2D",
      "MagneticFieldStrength": 3.0,
      "Manufacturer": "SIEMENS",
      "ManufacturerModelName": "Skyra",
      "Modality": "MR",
      "NumberOfAverages": 1.0,
      "NumberOfPhaseEncodingSteps": 64,
      "PercentPhaseFieldOfView": 100.0,
      "PercentSampling": 100.0,
      "PerformedProcedureStepStartTime": "105327.354000",
      "PhotometricInterpretation": "MONOCHROME2",
      "PixelBandwidth": 1700.0,
      "PixelRepresentation": 0,
      "PixelSpacing": [3.0, 3.0],
      "ProtocolName": "fMRI_1",
      "RepetitionTime": 2340.0,
      "Rows": 384,
      "SAR": 0.14325131531764,
      "SamplesPerPixel": 1,
      "ScanOptions": "FS",
      "ScanningSequence": "EP",
      "SequenceName": "*epfid2d1_64",
      "SequenceVariant": "SK",
      "SeriesDescription": "fMRI_1",
      "SeriesNumber": 2,
      "SeriesTime": "105633.928000",
      "SliceLocation": 9.7200957664523,
      "SliceThickness": 3.0,
      "SmallestImagePixelValue": 0,
      "SoftwareVersions": "syngo MR D13",
      "SpacingBetweenSlices": 3.3000000759355,
      "SpecificCharacterSet": "ISO_IR 100",
      "StudyID": "1",
      "StudyTime": "105327.305000",
      "TransmitCoilName": "Body",
      "VariableFlipAngleFlag": "N",
      "WindowCenterWidthExplanation": "Algo1",
      "dBdt": 0.0},
    "slices": {}
  },
  "time": {
    "samples": {
      "AcquisitionNumber": [1, 2, 3, 4, 5, 6, 7, 8, 9, 10, 11, 12, 13, 14, 15, 16, 17, 18, 19, 20, 21, 22, 23, 24, 25, 26, 27, 28, 29, 30, 31, 32, 33, 34, 35, 36, 37, 38, 39, 40, 41, 42, 43, 44, 45, 46, 47, 48, 49, 50, 51, 52, 53, 54, 55, 56, 57, 58, 59, 60, 61, 62, 63, 64, 65, 66, 67, 68, 69, 70, 71, 72, 73, 74, 75, 76, 77, 78, 79, 80, 81, 82, 83, 84, 85, 86, 87, 88, 89, 90, 91, 92, 93, 94, 95, 96, 97, 98, 99, 100, 101, 102, 103, 104, 105, 106, 107, 108, 109, 110, 111, 112, 113, 114, 115, 116, 117, 118, 119, 120, 121, 122, 123, 124, 125, 126, 127, 128],
      "AcquisitionTime": ["105541.062500", "105543.402500", "105545.742500", "105548.082500", "105550.422500", "105552.762500", "105555.102500", "105557.442500", "105559.782500", "105602.122500", "105604.462500", "105606.802500", "105609.142500", "105611.482500", "105613.822500", "105616.162500", "105618.502500", "105620.842500", "105623.182500", "105625.522500", "105627.862500", "105630.202500", "105632.542500", "105634.882500", "105637.222500", "105639.562500", "105641.902500", "105644.242500", "105646.582500", "105648.922500", "105651.262500", "105653.602500", "105655.942500", "105658.282500", "105700.622500", "105702.962500", "105705.302500", "105707.642500", "105709.982500", "105712.322500", "105714.662500", "105717.002500", "105719.342500", "105721.682500", "105724.022500", "105726.362500", "105728.702500", "105731.042500", "105733.382500", "105735.722500", "105738.062500", "105740.402500", "105742.742500", "105745.082500", "105747.422500", "105749.762500", "105752.102500", "105754.442500", "105756.782500", "105759.122500", "105801.462500", "105803.802500", "105806.142500", "105808.482500", "105810.822500", "105813.162500", "105815.502500", "105817.842500", "105820.182500", "105822.522500", "105824.862500", "105827.202500", "105829.542500", "105831.882500", "105834.222500", "105836.562500", "105838.902500", "105841.242500", "105843.582500", "105845.922500", "105848.262500", "105850.602500", "105852.942500", "105855.282500", "105857.622500", "105859.962500", "105902.302500", "105904.642500", "105906.982500", "105909.322500", "105911.662500", "105914.002500", "105916.342500", "105918.682500", "105921.022500", "105923.362500", "105925.702500", "105928.042500", "105930.382500", "105932.722500", "105935.062500", "105937.402500", "105939.742500", "105942.082500", "105944.422500", "105946.762500", "105949.102500", "105951.442500", "105953.782500", "105956.122500", "105958.462500", "110000.802500", "110003.142500", "110005.482500", "110007.822500", "110010.162500", "110012.502500", "110014.842500", "110017.182500", "110019.522500", "110021.862500", "110024.202500", "110026.542500", "110028.882500", "110031.222500", "110033.562500", "110035.902500", "110038.242500"],
      "ContentTime": ["105633.933000", "105633.937000", "105633.947000", "105633.950000", "105633.952000", "105633.955000", "105633.958000", "105633.960000", "105633.963000", "105633.966000", "105633.969000", "105633.972000", "105633.974000", "105633.977000", "105633.980000", "105633.983000", "105633.985000", "105633.988000", "105633.996000", "105633.999000", "105634.001000", "105634.004000", "105634.007000", "105733.927000", "105733.930000", "105733.941000", "105733.943000", "105733.946000", "105733.949000", "105733.952000", "105733.954000", "105733.957000", "105733.959000", "105733.962000", "105733.965000", "105733.968000", "105733.971000", "105733.973000", "105733.976000", "105733.979000", "105733.982000", "105733.985000", "105733.987000", "105733.990000", "105733.992000", "105733.995000", "105733.998000", "105734.001000", "105833.927000", "105833.937000", "105833.940000", "105833.943000", "105833.945000", "105833.948000", "105833.951000", "105833.954000", "105833.956000", "105833.959000", "105833.962000", "105833.964000", "105833.967000", "105833.970000", "105833.973000", "105833.975000", "105833.978000", "105833.980000", "105833.983000", "105833.986000", "105833.988000", "105833.991000", "105833.994000", "105833.996000", "105834.000000", "105834.003000", "105933.926000", "105933.930000", "105933.933000", "105933.935000", "105933.938000", "105933.941000", "105933.944000", "105933.947000", "105933.949000", "105933.952000", "105933.955000", "105933.958000", "105933.961000", "105933.964000", "105933.966000", "105933.969000", "105933.972000", "105933.975000", "105933.978000", "105933.980000", "105933.983000", "105933.986000", "105933.989000", "105933.996000", "105933.998000", "105934.002000", "110033.927000", "110033.931000", "110033.933000", "110033.936000", "110033.939000", "110033.942000", "110033.945000", "110033.947000", "110033.950000", "110033.953000", "110033.956000", "110033.959000", "110033.961000", "110033.964000", "110033.967000", "110033.970000", "110033.973000", "110033.976000", "110033.979000", "110033.981000", "110033.984000", "110033.987000", "110033.989000", "110033.992000", "110033.995000", "110040.972000", "110040.976000", "110040.979000"],
      "InstanceCreationTime": ["105633.933000", "105633.937000", "105633.947000", "105633.950000", "105633.952000", "105633.955000", "105633.958000", "105633.960000", "105633.963000", "105633.966000", "105633.969000", "105633.972000", "105633.974000", "105633.977000", "105633.980000", "105633.983000", "105633.985000", "105633.988000", "105633.996000", "105633.999000", "105634.001000", "105634.004000", "105634.007000", "105733.927000", "105733.930000", "105733.941000", "105733.943000", "105733.946000", "105733.949000", "105733.952000", "105733.954000", "105733.957000", "105733.959000", "105733.962000", "105733.965000", "105733.968000", "105733.971000", "105733.973000", "105733.976000", "105733.979000", "105733.982000", "105733.985000", "105733.987000", "105733.990000", "105733.992000", "105733.995000", "105733.998000", "105734.001000", "105833.927000", "105833.937000", "105833.940000", "105833.943000", "105833.945000", "105833.948000", "105833.951000", "105833.954000", "105833.956000", "105833.959000", "105833.962000", "105833.964000", "105833.967000", "105833.970000", "105833.973000", "105833.975000", "105833.978000", "105833.980000", "105833.983000", "105833.986000", "105833.988000", "105833.991000", "105833.994000", "105833.996000", "105834.000000", "105834.003000", "105933.926000", "105933.930000", "105933.933000", "105933.935000", "105933.938000", "105933.941000", "105933.944000", "105933.947000", "105933.949000", "105933.952000", "105933.955000", "105933.958000", "105933.961000", "105933.964000", "105933.966000", "105933.969000", "105933.972000", "105933.975000", "105933.978000", "105933.980000", "105933.983000", "105933.986000", "105933.989000", "105933.996000", "105933.998000", "105934.002000", "110033.927000", "110033.931000", "110033.933000", "110033.936000", "110033.939000", "110033.942000", "110033.945000", "110033.947000", "110033.950000", "110033.953000", "110033.956000", "110033.959000", "110033.961000", "110033.964000", "110033.967000", "110033.970000", "110033.973000", "110033.976000", "110033.979000", "110033.981000", "110033.984000", "110033.987000", "110033.989000", "110033.992000", "110033.995000", "110040.972000", "110040.976000", "110040.979000"],
      "InstanceNumber": [1, 2, 3, 4, 5, 6, 7, 8, 9, 10, 11, 12, 13, 14, 15, 16, 17, 18, 19, 20, 21, 22, 23, 24, 25, 26, 27, 28, 29, 30, 31, 32, 33, 34, 35, 36, 37, 38, 39, 40, 41, 42, 43, 44, 45, 46, 47, 48, 49, 50, 51, 52, 53, 54, 55, 56, 57, 58, 59, 60, 61, 62, 63, 64, 65, 66, 67, 68, 69, 70, 71, 72, 73, 74, 75, 76, 77, 78, 79, 80, 81, 82, 83, 84, 85, 86, 87, 88, 89, 90, 91, 92, 93, 94, 95, 96, 97, 98, 99, 100, 101, 102, 103, 104, 105, 106, 107, 108, 109, 110, 111, 112, 113, 114, 115, 116, 117, 118, 119, 120, 121, 122, 123, 124, 125, 126, 127, 128],
      "LargestImagePixelValue": [3115, 2879, 3408, 3247, 2536, 2130, 2283, 2094, 2184, 2349, 2082, 2431, 2441, 2716, 3073, 2726, 3143, 2242, 2519, 2217, 2142, 2239, 2867, 2878, 2431, 2195, 2052, 2218, 2323, 2638, 2438, 2251, 2227, 2860, 2381, 2264, 2812, 2297, 2144, 2135, 2255, 2243, 2439, 2739, 2196, 2585, 2374, 2954, 2386, 2102, 2519, 2298, 2699, 2147, 2618, 2534, 2954, 2095, 2238, 2129, 2455, 2719, 2240, 2267, 3086, 2290, 2947, 2279, 2215, 2463, 2517, 2290, 2326, 2164, 2246, 2498, 2200, 2176, 2217, 2238, 2877, 2978, 2613, 2145, 2164, 2165, 2524, 2669, 3155, 2319, 2457, 2848, 2248, 2062, 2172, 2289, 2048, 2413, 2279, 2445, 3045, 3008, 2170, 2308, 2566, 3013, 2336, 2639, 2230, 2217, 2222, 2496, 2195, 2189, 2194, 2221, 2456, 2416, 2691, 2190, 2560, 2154, 2382, 2398, 2761, 2277, 2275, 2267],
      "WindowCenter": [871.0, 871.0, 871.0, 867.0, 866.0, 866.0, 867.0, 868.0, 869.0, 869.0, 870.0, 871.0, 870.0, 870.0, 869.0, 869.0, 868.0, 867.0, 868.0, 868.0, 868.0, 870.0, 870.0, 868.0, 866.0, 867.0, 868.0, 871.0, 870.0, 868.0, 866.0, 869.0, 868.0, 868.0, 867.0, 867.0, 867.0, 866.0, 867.0, 868.0, 868.0, 869.0, 869.0, 869.0, 869.0, 872.0, 869.0, 869.0, 868.0, 869.0, 870.0, 869.0, 868.0, 869.0, 872.0, 868.0, 867.0, 868.0, 869.0, 871.0, 871.0, 870.0, 868.0, 870.0, 869.0, 869.0, 868.0, 867.0, 867.0, 869.0, 868.0, 867.0, 866.0, 870.0, 869.0, 870.0, 869.0, 869.0, 871.0, 872.0, 872.0, 871.0, 868.0, 869.0, 871.0, 872.0, 871.0, 870.0, 869.0, 868.0, 868.0, 868.0, 868.0, 869.0, 870.0, 871.0, 872.0, 873.0, 872.0, 875.0, 872.0, 871.0, 871.0, 872.0, 869.0, 869.0, 869.0, 871.0, 869.0, 870.0, 870.0, 870.0, 869.0, 871.0, 870.0, 873.0, 872.0, 870.0, 871.0, 869.0, 869.0, 870.0, 871.0, 874.0, 872.0, 871.0, 870.0, 871.0],
      "WindowWidth": [1886.0, 1886.0, 1886.0, 1874.0, 1869.0, 1872.0, 1875.0, 1876.0, 1878.0, 1879.0, 1881.0, 1885.0, 1882.0, 1884.0, 1882.0, 1879.0, 1878.0, 1872.0, 1876.0, 1878.0, 1876.0, 1882.0, 1881.0, 1877.0, 1873.0, 1874.0, 1878.0, 1885.0, 1880.0, 1877.0, 1872.0, 1879.0, 1877.0, 1877.0, 1876.0, 1873.0, 1876.0, 1870.0, 1873.0, 1876.0, 1876.0, 1879.0, 1879.0, 1881.0, 1879.0, 1888.0, 1879.0, 1881.0, 1876.0, 1879.0, 1882.0, 1879.0, 1878.0, 1878.0, 1887.0, 1878.0, 1876.0, 1877.0, 1880.0, 1886.0, 1885.0, 1883.0, 1877.0, 1882.0, 1881.0, 1878.0, 1879.0, 1874.0, 1874.0, 1880.0, 1878.0, 1873.0, 1873.0, 1882.0, 1880.0, 1883.0, 1882.0, 1880.0, 1885.0, 1888.0, 1889.0, 1886.0, 1878.0, 1881.0, 1887.0, 1889.0, 1886.0, 1885.0, 1882.0, 1876.0, 1878.0, 1878.0, 1877.0, 1880.0, 1884.0, 1886.0, 1886.0, 1892.0, 1889.0, 1898.0, 1890.0, 1887.0, 1885.0, 1888.0, 1881.0, 1882.0, 1882.0, 1887.0, 1881.0, 1882.0, 1883.0, 1885.0, 1880.0, 1885.0, 1882.0, 1892.0, 1889.0, 1884.0, 1887.0, 1880.0, 1882.0, 1882.0, 1888.0, 1894.0, 1890.0, 1886.0, 1884.0, 1888.0]
    },
    "slices": {}
  }
}