{
  "AcquisitionMatrixPE": 64,
  "AcquisitionNumber": 1,
  "AcquisitionTime": "09:05:42.102500",
  "BandwidthPerPixelPhaseEncode": 24.038,
  "BaseResolution": 64,
  "BodyPartExamined": "HEAD",
  "ConsistencyInfo": "N4_VD13A_LATEST_20120616",
  "ConversionSoftware": "dcm2niix",
  "ConversionSoftwareVersion": "v1.0.20181125  GCC6.3.0",
  "DerivedVendorReportedEchoSpacing": 0.000650012,
  "DeviceSerialNumber": "45250",
  "DwellTime": 4.6e-06,
  "EchoTime": 0.033,
  "EchoTrainLength": 64,
  "EffectiveEchoSpacing": 0.000650012,
  "FlipAngle": 90,
  "ImageOrientationPatientDICOM": [0.997772, -0.0464562, -0.0478814, 0.0435637, 0.997261, -0.0597801],
  "ImageType": [
    "ORIGINAL",
    "PRIMARY",
    "M",
    "ND",
    "NORM",
    "MOSAIC"
],
  "ImagingFrequency": 123.214,
  "InPlanePhaseEncodingDirectionDICOM": "COL",
  "InstitutionAddress": "Kopernikusstr._26_Graz_Graz_AT_8010",
  "InstitutionName": "KFU",
  "InstitutionalDepartmentName": "Department",
  "MRAcquisitionType": "2D",
  "MagneticFieldStrength": 3,
  "Manufacturer": "Siemens",
  "ManufacturersModelName": "Skyra",
  "Modality": "MR",
  "PartialFourier": 1,
  "PatientPosition": "HFS",
  "PercentPhaseFOV": 100,
  "PhaseEncodingDirection": "j-",
  "PhaseEncodingSteps": 64,
  "PhaseResolution": 1,
  "PixelBandwidth": 1700,
  "ProcedureStepDescription": "KFU_Entw-Psy",
  "ProtocolName": "fMRI_2",
  "PulseSequenceDetails": "%SiemensSeq%_ep2d_pace",
  "ReceiveCoilActiveElements": "HE1-4",
  "ReceiveCoilName": "HeadNeck_20",
  "ReconMatrixPE": 64,
  "RepetitionTime": 2.34,
  "SAR": 0.158806,
  "ScanOptions": "FS",
  "ScanningSequence": "EP",
  "SequenceName": "_epfid2d1_64",
  "SequenceVariant": "SK",
  "SeriesDescription": "fMRI_2",
  "SeriesNumber": 5,
  "ShimSetting": [-1642, -3687, -4300, 431, 433, 421, 196, -295],
  "SliceThickness": 3,
  "SliceTiming": [2.2525, 2.185, 2.115, 2.0475, 1.98, 1.9125, 1.8425, 1.775, 1.7075, 1.6375, 1.57, 1.5025, 1.435, 1.365, 1.2975, 1.23, 1.16, 1.0925, 1.025, 0.955, 0.8875, 0.82, 0.7525, 0.6825, 0.615, 0.5475, 0.4775, 0.41, 0.3425, 0.275, 0.205, 0.1375, 0.07, 0],
  "SoftwareVersions": "syngo_MR_D13",
  "SpacingBetweenSlices": 3.3,
  "StationName": "FBMTMR1",
  "TaskName": "read",
  "TotalReadoutTime": 0.0409508,
  "TxRefAmp": 330.863,
  "dcmmeta_affine": [
    [-2.993316411972046, 0.13069094717502594, -0.1667405217885971, 91.70002746582031],
    [0.13936865329742432, 2.99178147315979, -0.18995140492916107, -115.21034240722656],
    [-0.1436443328857422, 0.17934031784534454, 3.290306329727173, -18.047441482543945],
    [0.0, 0.0, 0.0, 1.0]
],
  "dcmmeta_reorient_transform": [
    [0.0, -1.0, 0.0, 63.0],
    [1.0, 0.0, 0.0, 0.0],
    [0.0, 0.0, 1.0, 0.0],
    [0.0, 0.0, 0.0, 1.0]
],
  "dcmmeta_shape": [64, 64, 34, 129],
  "dcmmeta_slice_dim": 2,
  "dcmmeta_version": 0.6,
  "global": {
    "const": {
      "AcquisitionMatrix": [64, 0, 0, 64],
      "AngioFlag": "N",
      "BitsAllocated": 16,
      "BitsStored": 12,
      "BodyPartExamined": "HEAD",
      "Columns": 384,
      "EchoNumbers": 1,
      "EchoTime": 33.0,
      "EchoTrainLength": 64,
      "FlipAngle": 90.0,
      "HighBit": 11,
      "ImageOrientationPatient": [0.99777211182669, -0.0464562200701, -0.0478814418925, 0.04356365144666, 0.99726052114869, -0.0597801073174],
      "ImagePositionPatient": [-599.77472543311, -529.65796164066, 44.928541541667],
      "ImageType": [
        "ORIGINAL",
        "PRIMARY",
        "M",
        "ND",
        "NORM",
        "MOSAIC"
],
      "ImagedNucleus": "1H",
      "ImagingFrequency": 123.214388,
      "InPlanePhaseEncodingDirection": "COL",
      "MRAcquisitionType": "2D",
      "MagneticFieldStrength": 3.0,
      "Manufacturer": "SIEMENS",
      "ManufacturerModelName": "Skyra",
      "Modality": "MR",
      "NumberOfAverages": 1.0,
      "NumberOfPhaseEncodingSteps": 64,
      "PercentPhaseFieldOfView": 100.0,
      "PercentSampling": 100.0,
      "PerformedProcedureStepStartTime": "085655.091000",
      "PhotometricInterpretation": "MONOCHROME2",
      "PixelBandwidth": 1700.0,
      "PixelRepresentation": 0,
      "PixelSpacing": [3.0, 3.0],
      "ProtocolName": "fMRI_2",
      "RepetitionTime": 2340.0,
      "Rows": 384,
      "SAR": 0.15880569706529,
      "SamplesPerPixel": 1,
      "ScanOptions": "FS",
      "ScanningSequence": "EP",
      "SequenceName": "*epfid2d1_64",
      "SequenceVariant": "SK",
      "SeriesDescription": "fMRI_2",
      "SeriesNumber": 5,
      "SeriesTime": "090629.265000",
      "SliceLocation": -15.99616913248,
      "SliceThickness": 3.0,
      "SmallestImagePixelValue": 0,
      "SoftwareVersions": "syngo MR D13",
      "SpacingBetweenSlices": 3.2999999443039,
      "SpecificCharacterSet": "ISO_IR 100",
      "StudyID": "1",
      "StudyTime": "085655.028000",
      "TransmitCoilName": "Body",
      "VariableFlipAngleFlag": "N",
      "WindowCenterWidthExplanation": "Algo1",
      "dBdt": 0.0},
    "slices": {}
  },
  "time": {
    "samples": {
      "AcquisitionNumber": [1, 2, 3, 4, 5, 6, 7, 8, 9, 10, 11, 12, 13, 14, 15, 16, 17, 18, 19, 20, 21, 22, 23, 24, 25, 26, 27, 28, 29, 30, 31, 32, 33, 34, 35, 36, 37, 38, 39, 40, 41, 42, 43, 44, 45, 46, 47, 48, 49, 50, 51, 52, 53, 54, 55, 56, 57, 58, 59, 60, 61, 62, 63, 64, 65, 66, 67, 68, 69, 70, 71, 72, 73, 74, 75, 76, 77, 78, 79, 80, 81, 82, 83, 84, 85, 86, 87, 88, 89, 90, 91, 92, 93, 94, 95, 96, 97, 98, 99, 100, 101, 102, 103, 104, 105, 106, 107, 108, 109, 110, 111, 112, 113, 114, 115, 116, 117, 118, 119, 120, 121, 122, 123, 124, 125, 126, 127, 128, 129],
      "AcquisitionTime": ["090542.102500", "090544.442500", "090546.782500", "090549.122500", "090551.462500", "090553.802500", "090556.142500", "090558.482500", "090600.822500", "090603.162500", "090605.502500", "090607.842500", "090610.182500", "090612.522500", "090614.862500", "090617.202500", "090619.542500", "090621.882500", "090624.222500", "090626.562500", "090628.902500", "090631.242500", "090633.582500", "090635.922500", "090638.262500", "090640.602500", "090642.942500", "090645.282500", "090647.622500", "090649.962500", "090652.302500", "090654.642500", "090656.982500", "090659.322500", "090701.662500", "090704.002500", "090706.342500", "090708.682500", "090711.022500", "090713.362500", "090715.702500", "090718.042500", "090720.382500", "090722.722500", "090725.062500", "090727.402500", "090729.742500", "090732.082500", "090734.422500", "090736.762500", "090739.102500", "090741.442500", "090743.782500", "090746.122500", "090748.462500", "090750.802500", "090753.142500", "090755.482500", "090757.822500", "090800.162500", "090802.502500", "090804.842500", "090807.182500", "090809.522500", "090811.862500", "090814.202500", "090816.542500", "090818.882500", "090821.222500", "090823.562500", "090825.902500", "090828.242500", "090830.582500", "090832.922500", "090835.262500", "090837.602500", "090839.942500", "090842.282500", "090844.622500", "090846.962500", "090849.302500", "090851.642500", "090853.982500", "090856.322500", "090858.662500", "090901.002500", "090903.342500", "090905.682500", "090908.022500", "090910.362500", "090912.702500", "090915.042500", "090917.382500", "090919.722500", "090922.062500", "090924.402500", "090926.742500", "090929.082500", "090931.422500", "090933.762500", "090936.102500", "090938.442500", "090940.782500", "090943.122500", "090945.462500", "090947.802500", "090950.142500", "090952.482500", "090954.822500", "090957.162500", "090959.502500", "091001.842500", "091004.182500", "091006.522500", "091008.862500", "091011.202500", "091013.542500", "091015.882500", "091018.222500", "091020.562500", "091022.902500", "091025.242500", "091027.582500", "091029.922500", "091032.262500", "091034.602500", "091036.942500", "091039.282500", "091041.622500"],
      "ContentTime": ["090629.270000", "090629.275000", "090629.277000", "090629.280000", "090629.283000", "090629.285000", "090629.288000", "090629.291000", "090629.294000", "090629.297000", "090629.299000", "090629.302000", "090629.305000", "090629.307000", "090629.314000", "090629.320000", "090629.323000", "090629.325000", "090629.328000", "090629.331000", "090729.261000", "090729.271000", "090729.275000", "090729.278000", "090729.280000", "090729.283000", "090729.286000", "090729.289000", "090729.292000", "090729.297000", "090729.299000", "090729.302000", "090729.305000", "090729.307000", "090729.310000", "090729.313000", "090729.315000", "090729.318000", "090729.321000", "090729.323000", "090729.326000", "090729.329000", "090729.332000", "090729.334000", "090729.337000", "090729.340000", "090829.263000", "090829.266000", "090829.269000", "090829.272000", "090829.275000", "090829.278000", "090829.281000", "090829.283000", "090829.286000", "090829.289000", "090829.292000", "090829.295000", "090829.298000", "090829.301000", "090829.303000", "090829.306000", "090829.309000", "090829.312000", "090829.315000", "090829.318000", "090829.320000", "090829.323000", "090829.326000", "090829.329000", "090829.332000", "090829.335000", "090849.263000", "090849.267000", "090849.270000", "090849.272000", "090849.275000", "090849.278000", "090849.281000", "090849.284000", "090949.262000", "090949.266000", "090949.268000", "090949.271000", "090949.274000", "090949.277000", "090949.280000", "090949.283000", "090949.285000", "090949.288000", "090949.291000", "090949.294000", "090949.297000", "090949.300000", "090949.302000", "090949.305000", "090949.308000", "090949.311000", "090949.314000", "090949.316000", "090949.319000", "090949.322000", "090949.325000", "090949.327000", "090949.330000", "090949.333000", "091044.247000", "091044.250000", "091044.253000", "091044.259000", "091044.263000", "091044.266000", "091044.269000", "091044.272000", "091044.275000", "091044.278000", "091044.283000", "091044.287000", "091044.292000", "091044.296000", "091044.305000", "091044.308000", "091044.311000", "091044.314000", "091044.316000", "091044.319000", "091044.322000", "091044.325000", "091044.328000"],
      "InstanceCreationTime": ["090629.270000", "090629.275000", "090629.277000", "090629.280000", "090629.283000", "090629.285000", "090629.288000", "090629.291000", "090629.294000", "090629.297000", "090629.299000", "090629.302000", "090629.305000", "090629.307000", "090629.314000", "090629.320000", "090629.323000", "090629.325000", "090629.328000", "090629.331000", "090729.261000", "090729.271000", "090729.275000", "090729.278000", "090729.280000", "090729.283000", "090729.286000", "090729.289000", "090729.292000", "090729.297000", "090729.299000", "090729.302000", "090729.305000", "090729.307000", "090729.310000", "090729.313000", "090729.315000", "090729.318000", "090729.321000", "090729.323000", "090729.326000", "090729.329000", "090729.332000", "090729.334000", "090729.337000", "090729.340000", "090829.263000", "090829.266000", "090829.269000", "090829.272000", "090829.275000", "090829.278000", "090829.281000", "090829.283000", "090829.286000", "090829.289000", "090829.292000", "090829.295000", "090829.298000", "090829.301000", "090829.303000", "090829.306000", "090829.309000", "090829.312000", "090829.315000", "090829.318000", "090829.320000", "090829.323000", "090829.326000", "090829.329000", "090829.332000", "090829.335000", "090849.263000", "090849.267000", "090849.270000", "090849.272000", "090849.275000", "090849.278000", "090849.281000", "090849.284000", "090949.262000", "090949.266000", "090949.268000", "090949.271000", "090949.274000", "090949.277000", "090949.280000", "090949.283000", "090949.285000", "090949.288000", "090949.291000", "090949.294000", "090949.297000", "090949.300000", "090949.302000", "090949.305000", "090949.308000", "090949.311000", "090949.314000", "090949.316000", "090949.319000", "090949.322000", "090949.325000", "090949.327000", "090949.330000", "090949.333000", "091044.247000", "091044.250000", "091044.253000", "091044.259000", "091044.263000", "091044.266000", "091044.269000", "091044.272000", "091044.275000", "091044.278000", "091044.283000", "091044.287000", "091044.292000", "091044.296000", "091044.305000", "091044.308000", "091044.311000", "091044.314000", "091044.316000", "091044.319000", "091044.322000", "091044.325000", "091044.328000"],
      "InstanceNumber": [1, 2, 3, 4, 5, 6, 7, 8, 9, 10, 11, 12, 13, 14, 15, 16, 17, 18, 19, 20, 21, 22, 23, 24, 25, 26, 27, 28, 29, 30, 31, 32, 33, 34, 35, 36, 37, 38, 39, 40, 41, 42, 43, 44, 45, 46, 47, 48, 49, 50, 51, 52, 53, 54, 55, 56, 57, 58, 59, 60, 61, 62, 63, 64, 65, 66, 67, 68, 69, 70, 71, 72, 73, 74, 75, 76, 77, 78, 79, 80, 81, 82, 83, 84, 85, 86, 87, 88, 89, 90, 91, 92, 93, 94, 95, 96, 97, 98, 99, 100, 101, 102, 103, 104, 105, 106, 107, 108, 109, 110, 111, 112, 113, 114, 115, 116, 117, 118, 119, 120, 121, 122, 123, 124, 125, 126, 127, 128, 129],
      "LargestImagePixelValue": [1805, 1836, 2087, 3331, 2899, 1831, 1715, 2615, 2077, 1817, 1792, 1799, 1861, 2580, 2630, 3106, 2914, 2995, 2117, 1816, 1897, 2833, 2713, 1849, 1823, 1737, 1842, 2654, 1854, 1716, 1762, 1891, 1743, 2293, 1854, 1825, 2795, 3123, 2318, 2716, 1967, 1794, 1890, 1788, 2494, 2124, 1958, 1778, 2958, 1751, 1738, 2934, 1914, 2561, 2176, 1828, 2816, 1813, 1729, 2967, 1965, 1824, 2352, 3263, 1856, 1830, 2524, 1813, 1809, 1842, 2165, 1748, 2312, 3119, 3073, 3368, 2428, 1802, 1800, 1921, 1771, 1775, 1784, 1815, 1823, 3026, 1736, 1769, 2538, 1861, 1696, 2379, 1862, 2049, 2550, 3300, 2974, 2752, 1786, 1863, 2746, 1963, 1907, 2779, 3394, 3171, 2303, 1958, 2567, 1792, 2801, 1794, 1719, 2647, 2013, 1725, 2101, 2807, 2834, 2220, 1823, 2433, 3163, 1785, 1794, 1806, 1814, 1757, 1772],
      "WindowCenter": [809.0, 812.0, 806.0, 803.0, 808.0, 808.0, 806.0, 804.0, 807.0, 808.0, 815.0, 815.0, 810.0, 809.0, 805.0, 805.0, 802.0, 801.0, 795.0, 800.0, 798.0, 803.0, 804.0, 810.0, 806.0, 805.0, 805.0, 809.0, 802.0, 805.0, 805.0, 805.0, 804.0, 805.0, 811.0, 810.0, 809.0, 807.0, 802.0, 804.0, 806.0, 808.0, 808.0, 808.0, 810.0, 813.0, 808.0, 812.0, 809.0, 808.0, 808.0, 807.0, 807.0, 809.0, 811.0, 805.0, 809.0, 804.0, 801.0, 800.0, 808.0, 809.0, 805.0, 800.0, 807.0, 808.0, 805.0, 807.0, 806.0, 815.0, 812.0, 808.0, 808.0, 812.0, 805.0, 804.0, 803.0, 802.0, 804.0, 809.0, 807.0, 811.0, 807.0, 805.0, 806.0, 807.0, 807.0, 810.0, 808.0, 809.0, 808.0, 813.0, 811.0, 806.0, 811.0, 806.0, 799.0, 804.0, 803.0, 807.0, 810.0, 812.0, 808.0, 810.0, 806.0, 804.0, 806.0, 805.0, 807.0, 805.0, 804.0, 803.0, 802.0, 805.0, 809.0, 807.0, 806.0, 808.0, 806.0, 808.0, 798.0, 801.0, 801.0, 803.0, 802.0, 808.0, 805.0, 809.0, 808.0],
      "WindowWidth": [1690.0, 1700.0, 1688.0, 1687.0, 1684.0, 1686.0, 1681.0, 1686.0, 1684.0, 1688.0, 1702.0, 1705.0, 1694.0, 1692.0, 1685.0, 1684.0, 1674.0, 1673.0, 1657.0, 1671.0, 1670.0, 1677.0, 1674.0, 1694.0, 1685.0, 1683.0, 1684.0, 1688.0, 1679.0, 1683.0, 1683.0, 1682.0, 1679.0, 1683.0, 1691.0, 1697.0, 1697.0, 1687.0, 1674.0, 1682.0, 1682.0, 1689.0, 1689.0, 1690.0, 1697.0, 1699.0, 1688.0, 1699.0, 1694.0, 1690.0, 1691.0, 1692.0, 1687.0, 1696.0, 1700.0, 1686.0, 1692.0, 1679.0, 1672.0, 1677.0, 1691.0, 1696.0, 1688.0, 1672.0, 1680.0, 1697.0, 1690.0, 1684.0, 1683.0, 1708.0, 1699.0, 1692.0, 1695.0, 1699.0, 1681.0, 1685.0, 1677.0, 1676.0, 1681.0, 1691.0, 1686.0, 1697.0, 1688.0, 1684.0, 1687.0, 1691.0, 1685.0, 1695.0, 1692.0, 1691.0, 1690.0, 1701.0, 1696.0, 1696.0, 1702.0, 1687.0, 1669.0, 1680.0, 1677.0, 1686.0, 1693.0, 1699.0, 1689.0, 1693.0, 1685.0, 1684.0, 1684.0, 1682.0, 1687.0, 1684.0, 1682.0, 1676.0, 1676.0, 1688.0, 1687.0, 1684.0, 1688.0, 1689.0, 1682.0, 1690.0, 1669.0, 1671.0, 1675.0, 1673.0, 1671.0, 1692.0, 1683.0, 1692.0, 1691.0]
    },
    "slices": {}
  }
}