{
  "AcquisitionMatrixPE": 64,
  "AcquisitionNumber": 1,
  "AcquisitionTime": "16:10:13.557500",
  "BandwidthPerPixelPhaseEncode": 24.038,
  "BaseResolution": 64,
  "BodyPartExamined": "HEAD",
  "ConsistencyInfo": "N4_VD13A_LATEST_20120616",
  "ConversionSoftware": "dcm2niix",
  "ConversionSoftwareVersion": "v1.0.20181125  GCC6.3.0",
  "DerivedVendorReportedEchoSpacing": 0.000650012,
  "DeviceSerialNumber": "45250",
  "DwellTime": 4.6e-06,
  "EchoTime": 0.033,
  "EchoTrainLength": 64,
  "EffectiveEchoSpacing": 0.000650012,
  "FlipAngle": 90,
  "ImageOrientationPatientDICOM": [0.999919, -0.00435506, -0.0119342, 0.00349037, 0.997432, -0.0715408],
  "ImageType": [
    "ORIGINAL",
    "PRIMARY",
    "M",
    "ND",
    "NORM",
    "MOSAIC"
],
  "ImagingFrequency": 123.22,
  "InPlanePhaseEncodingDirectionDICOM": "COL",
  "InstitutionAddress": "Kopernikusstr._26_Graz_Graz_AT_8010",
  "InstitutionName": "KFU",
  "InstitutionalDepartmentName": "Department",
  "MRAcquisitionType": "2D",
  "MagneticFieldStrength": 3,
  "Manufacturer": "Siemens",
  "ManufacturersModelName": "Skyra",
  "Modality": "MR",
  "PartialFourier": 1,
  "PatientPosition": "HFS",
  "PercentPhaseFOV": 100,
  "PhaseEncodingDirection": "j-",
  "PhaseEncodingSteps": 64,
  "PhaseResolution": 1,
  "PixelBandwidth": 1700,
  "ProcedureStepDescription": "KFU_Entw-Psy",
  "ProtocolName": "fMRI_3",
  "PulseSequenceDetails": "%SiemensSeq%_ep2d_pace",
  "ReceiveCoilActiveElements": "HE1-4",
  "ReceiveCoilName": "HeadNeck_20",
  "ReconMatrixPE": 64,
  "RepetitionTime": 2.34,
  "SAR": 0.185282,
  "ScanOptions": "FS",
  "ScanningSequence": "EP",
  "SequenceName": "_epfid2d1_64",
  "SequenceVariant": "SK",
  "SeriesDescription": "fMRI_3",
  "SeriesNumber": 9,
  "ShimSetting": [-1692, -3778, -4328, 412, 473, -206, 479, -245],
  "SliceThickness": 3,
  "SliceTiming": [2.25, 2.1825, 2.115, 2.045, 1.9775, 1.91, 1.84, 1.7725, 1.705, 1.6375, 1.5675, 1.5, 1.4325, 1.3625, 1.295, 1.2275, 1.16, 1.09, 1.0225, 0.955, 0.885, 0.8175, 0.75, 0.6825, 0.6125, 0.545, 0.4775, 0.4075, 0.34, 0.2725, 0.2025, 0.135, 0.0675, 0],
  "SoftwareVersions": "syngo_MR_D13",
  "SpacingBetweenSlices": 3.3,
  "StationName": "FBMTMR1",
  "TaskName": "read",
  "TotalReadoutTime": 0.0409508,
  "TxRefAmp": 327.577,
  "dcmmeta_affine": [
    [-2.999758005142212, 0.010471101850271225, -0.04030996561050415, 93.51306915283203],
    [0.01306516770273447, 2.9922947883605957, -0.2359282523393631, -109.22561645507812],
    [-0.0358026884496212, 0.21462251245975494, 3.291308641433716, -24.167312622070312],
    [0.0, 0.0, 0.0, 1.0]
],
  "dcmmeta_reorient_transform": [
    [0.0, -1.0, 0.0, 63.0],
    [1.0, 0.0, 0.0, 0.0],
    [0.0, 0.0, 1.0, 0.0],
    [0.0, 0.0, 0.0, 1.0]
],
  "dcmmeta_shape": [64, 64, 34, 130],
  "dcmmeta_slice_dim": 2,
  "dcmmeta_version": 0.6,
  "global": {
    "const": {
      "AcquisitionMatrix": [64, 0, 0, 64],
      "AngioFlag": "N",
      "BitsAllocated": 16,
      "BitsStored": 12,
      "BodyPartExamined": "HEAD",
      "Columns": 384,
      "EchoNumbers": 1,
      "EchoTime": 33.0,
      "EchoTrainLength": 64,
      "FlipAngle": 90.0,
      "HighBit": 11,
      "ImageOrientationPatient": [0.99991930057646, -0.0043550560432, -0.0119342289886, 0.00349036728048, 0.99743156442838, -0.071540838814],
      "ImagePositionPatient": [-575.80938904616, -555.9656725744, 29.421938660615],
      "ImageType": [
        "ORIGINAL",
        "PRIMARY",
        "M",
        "ND",
        "NORM",
        "MOSAIC"
],
      "ImagedNucleus": "1H",
      "ImagingFrequency": 123.219937,
      "InPlanePhaseEncodingDirection": "COL",
      "MRAcquisitionType": "2D",
      "MagneticFieldStrength": 3.0,
      "Manufacturer": "SIEMENS",
      "ManufacturerModelName": "Skyra",
      "Modality": "MR",
      "NumberOfAverages": 1.0,
      "NumberOfPhaseEncodingSteps": 64,
      "PercentPhaseFieldOfView": 100.0,
      "PercentSampling": 100.0,
      "PerformedProcedureStepStartTime": "153728.551000",
      "PhotometricInterpretation": "MONOCHROME2",
      "PixelBandwidth": 1700.0,
      "PixelRepresentation": 0,
      "PixelSpacing": [3.0, 3.0],
      "ProtocolName": "fMRI_3",
      "RepetitionTime": 2340.0,
      "Rows": 384,
      "SAR": 0.18528238420316,
      "SamplesPerPixel": 1,
      "ScanOptions": "FS",
      "ScanningSequence": "EP",
      "SequenceName": "*epfid2d1_64",
      "SequenceVariant": "SK",
      "SeriesDescription": "fMRI_3",
      "SeriesNumber": 9,
      "SeriesTime": "161101.529000",
      "SliceLocation": -17.437025745907,
      "SliceThickness": 3.0,
      "SmallestImagePixelValue": 0,
      "SoftwareVersions": "syngo MR D13",
      "SpacingBetweenSlices": 3.299999906013,
      "SpecificCharacterSet": "ISO_IR 100",
      "StudyID": "1",
      "StudyTime": "153728.500000",
      "TransmitCoilName": "Body",
      "VariableFlipAngleFlag": "N",
      "WindowCenterWidthExplanation": "Algo1",
      "dBdt": 0.0},
    "slices": {}
  },
  "time": {
    "samples": {
      "AcquisitionNumber": [1, 2, 3, 4, 5, 6, 7, 8, 9, 10, 11, 12, 13, 14, 15, 16, 17, 18, 19, 20, 21, 22, 23, 24, 25, 26, 27, 28, 29, 30, 31, 32, 33, 34, 35, 36, 37, 38, 39, 40, 41, 42, 43, 44, 45, 46, 47, 48, 49, 50, 51, 52, 53, 54, 55, 56, 57, 58, 59, 60, 61, 62, 63, 64, 65, 66, 67, 68, 69, 70, 71, 72, 73, 74, 75, 76, 77, 78, 79, 80, 81, 82, 83, 84, 85, 86, 87, 88, 89, 90, 91, 92, 93, 94, 95, 96, 97, 98, 99, 100, 101, 102, 103, 104, 105, 106, 107, 108, 109, 110, 111, 112, 113, 114, 115, 116, 117, 118, 119, 120, 121, 122, 123, 124, 125, 126, 127, 128, 129, 130],
      "AcquisitionTime": ["161013.557500", "161015.897500", "161018.237500", "161020.577500", "161022.917500", "161025.257500", "161027.597500", "161029.937500", "161032.277500", "161034.617500", "161036.957500", "161039.297500", "161041.637500", "161043.977500", "161046.317500", "161048.657500", "161050.997500", "161053.337500", "161055.677500", "161058.017500", "161100.357500", "161102.697500", "161105.037500", "161107.377500", "161109.717500", "161112.057500", "161114.397500", "161116.737500", "161119.077500", "161121.417500", "161123.757500", "161126.097500", "161128.437500", "161130.777500", "161133.117500", "161135.457500", "161137.797500", "161140.137500", "161142.477500", "161144.817500", "161147.157500", "161149.497500", "161151.837500", "161154.177500", "161156.517500", "161158.857500", "161201.197500", "161203.537500", "161205.877500", "161208.217500", "161210.557500", "161212.897500", "161215.237500", "161217.577500", "161219.917500", "161222.257500", "161224.597500", "161226.937500", "161229.277500", "161231.617500", "161233.957500", "161236.297500", "161238.637500", "161240.977500", "161243.317500", "161245.657500", "161247.997500", "161250.337500", "161252.677500", "161255.017500", "161257.357500", "161259.697500", "161302.037500", "161304.377500", "161306.717500", "161309.057500", "161311.397500", "161313.737500", "161316.077500", "161318.417500", "161320.757500", "161323.097500", "161325.437500", "161327.777500", "161330.117500", "161332.457500", "161334.797500", "161337.137500", "161339.477500", "161341.817500", "161344.157500", "161346.497500", "161348.837500", "161351.177500", "161353.517500", "161355.857500", "161358.197500", "161400.537500", "161402.877500", "161405.217500", "161407.557500", "161409.897500", "161412.237500", "161414.577500", "161416.917500", "161419.257500", "161421.597500", "161423.937500", "161426.277500", "161428.617500", "161430.957500", "161433.297500", "161435.637500", "161437.977500", "161440.317500", "161442.657500", "161444.997500", "161447.337500", "161449.677500", "161452.017500", "161454.357500", "161456.697500", "161459.037500", "161501.377500", "161503.717500", "161506.057500", "161508.397500", "161510.737500", "161513.077500", "161515.417500"],
      "ContentTime": ["161101.533000", "161101.537000", "161101.539000", "161101.542000", "161101.545000", "161101.547000", "161101.550000", "161101.553000", "161101.555000", "161101.558000", "161101.565000", "161101.568000", "161101.570000", "161101.573000", "161101.576000", "161101.578000", "161101.581000", "161101.583000", "161101.586000", "161101.589000", "161101.591000", "161121.528000", "161121.532000", "161121.534000", "161121.537000", "161121.539000", "161121.542000", "161121.545000", "161121.547000", "161221.527000", "161221.531000", "161221.533000", "161221.536000", "161221.539000", "161221.541000", "161221.544000", "161221.547000", "161221.549000", "161221.552000", "161221.555000", "161221.557000", "161221.560000", "161221.563000", "161221.565000", "161221.568000", "161221.571000", "161221.573000", "161221.576000", "161221.579000", "161221.581000", "161221.590000", "161221.593000", "161221.596000", "161221.598000", "161221.601000", "161321.527000", "161321.530000", "161321.533000", "161321.535000", "161321.539000", "161321.542000", "161321.545000", "161321.547000", "161321.550000", "161321.553000", "161321.555000", "161321.558000", "161321.561000", "161321.563000", "161321.566000", "161321.568000", "161321.571000", "161321.574000", "161321.576000", "161321.579000", "161321.582000", "161321.584000", "161321.587000", "161321.589000", "161321.592000", "161421.527000", "161421.531000", "161421.533000", "161421.536000", "161421.539000", "161421.541000", "161421.544000", "161421.546000", "161421.560000", "161421.563000", "161421.565000", "161421.568000", "161421.571000", "161421.573000", "161421.576000", "161421.578000", "161421.581000", "161421.584000", "161421.586000", "161421.589000", "161421.592000", "161421.594000", "161421.597000", "161421.600000", "161421.602000", "161421.605000", "161516.262000", "161516.265000", "161516.268000", "161516.271000", "161516.274000", "161516.277000", "161516.281000", "161516.284000", "161516.287000", "161516.291000", "161516.294000", "161516.297000", "161516.299000", "161516.302000", "161516.305000", "161516.308000", "161516.310000", "161516.313000", "161516.316000", "161516.318000", "161516.321000", "161516.324000", "161516.326000", "161516.329000"],
      "InstanceCreationTime": ["161101.533000", "161101.537000", "161101.539000", "161101.542000", "161101.545000", "161101.547000", "161101.550000", "161101.553000", "161101.555000", "161101.558000", "161101.565000", "161101.568000", "161101.570000", "161101.573000", "161101.576000", "161101.578000", "161101.581000", "161101.583000", "161101.586000", "161101.589000", "161101.591000", "161121.528000", "161121.532000", "161121.534000", "161121.537000", "161121.539000", "161121.542000", "161121.545000", "161121.547000", "161221.527000", "161221.531000", "161221.533000", "161221.536000", "161221.539000", "161221.541000", "161221.544000", "161221.547000", "161221.549000", "161221.552000", "161221.555000", "161221.557000", "161221.560000", "161221.563000", "161221.565000", "161221.568000", "161221.571000", "161221.573000", "161221.576000", "161221.579000", "161221.581000", "161221.590000", "161221.593000", "161221.596000", "161221.598000", "161221.601000", "161321.527000", "161321.530000", "161321.533000", "161321.535000", "161321.539000", "161321.542000", "161321.545000", "161321.547000", "161321.550000", "161321.553000", "161321.555000", "161321.558000", "161321.561000", "161321.563000", "161321.566000", "161321.568000", "161321.571000", "161321.574000", "161321.576000", "161321.579000", "161321.582000", "161321.584000", "161321.587000", "161321.589000", "161321.592000", "161421.527000", "161421.531000", "161421.533000", "161421.536000", "161421.539000", "161421.541000", "161421.544000", "161421.546000", "161421.560000", "161421.563000", "161421.565000", "161421.568000", "161421.571000", "161421.573000", "161421.576000", "161421.578000", "161421.581000", "161421.584000", "161421.586000", "161421.589000", "161421.592000", "161421.594000", "161421.597000", "161421.600000", "161421.602000", "161421.605000", "161516.262000", "161516.265000", "161516.268000", "161516.271000", "161516.274000", "161516.277000", "161516.281000", "161516.284000", "161516.287000", "161516.291000", "161516.294000", "161516.297000", "161516.299000", "161516.302000", "161516.305000", "161516.308000", "161516.310000", "161516.313000", "161516.316000", "161516.318000", "161516.321000", "161516.324000", "161516.326000", "161516.329000"],
      "InstanceNumber": [1, 2, 3, 4, 5, 6, 7, 8, 9, 10, 11, 12, 13, 14, 15, 16, 17, 18, 19, 20, 21, 22, 23, 24, 25, 26, 27, 28, 29, 30, 31, 32, 33, 34, 35, 36, 37, 38, 39, 40, 41, 42, 43, 44, 45, 46, 47, 48, 49, 50, 51, 52, 53, 54, 55, 56, 57, 58, 59, 60, 61, 62, 63, 64, 65, 66, 67, 68, 69, 70, 71, 72, 73, 74, 75, 76, 77, 78, 79, 80, 81, 82, 83, 84, 85, 86, 87, 88, 89, 90, 91, 92, 93, 94, 95, 96, 97, 98, 99, 100, 101, 102, 103, 104, 105, 106, 107, 108, 109, 110, 111, 112, 113, 114, 115, 116, 117, 118, 119, 120, 121, 122, 123, 124, 125, 126, 127, 128, 129, 130],
      "LargestImagePixelValue": [2926, 2198, 1707, 2474, 2580, 2512, 2284, 1735, 2396, 2381, 1716, 2137, 1743, 1727, 1749, 2136, 2210, 2149, 2890, 2941, 2912, 1755, 1875, 2061, 1687, 1765, 1697, 2235, 2616, 2875, 3082, 2475, 1803, 1702, 2243, 1797, 1732, 2543, 1801, 1755, 2060, 2703, 2575, 2870, 1762, 1934, 1712, 2398, 1794, 2996, 1720, 1693, 1779, 1678, 1655, 2976, 1996, 2475, 1695, 2009, 1702, 2036, 1689, 3058, 1987, 3255, 3262, 3045, 1774, 1764, 1621, 1682, 1743, 1745, 1885, 2052, 1742, 1735, 1713, 1713, 1703, 1779, 2438, 2432, 2640, 1766, 3090, 2612, 1760, 2446, 2398, 2723, 1728, 1757, 1658, 2294, 1722, 1627, 2492, 1921, 1716, 2826, 3050, 3096, 2530, 2009, 1717, 1744, 1677, 1778, 1831, 1718, 1706, 2600, 2078, 1696, 2468, 3035, 1858, 1927, 1738, 2920, 2989, 2364, 1753, 1757, 1942, 2156, 1811, 1665],
      "WindowCenter": [779.0, 778.0, 778.0, 775.0, 783.0, 782.0, 778.0, 778.0, 780.0, 778.0, 776.0, 779.0, 780.0, 784.0, 780.0, 784.0, 782.0, 782.0, 782.0, 779.0, 778.0, 779.0, 780.0, 785.0, 782.0, 786.0, 784.0, 783.0, 785.0, 784.0, 779.0, 779.0, 776.0, 781.0, 780.0, 780.0, 780.0, 778.0, 794.0, 793.0, 789.0, 786.0, 786.0, 787.0, 791.0, 786.0, 789.0, 785.0, 785.0, 784.0, 781.0, 786.0, 785.0, 787.0, 788.0, 788.0, 784.0, 789.0, 781.0, 787.0, 787.0, 791.0, 784.0, 784.0, 780.0, 775.0, 778.0, 777.0, 773.0, 776.0, 778.0, 780.0, 782.0, 783.0, 785.0, 786.0, 782.0, 781.0, 784.0, 782.0, 777.0, 782.0, 786.0, 780.0, 775.0, 784.0, 783.0, 783.0, 776.0, 781.0, 780.0, 781.0, 781.0, 782.0, 782.0, 785.0, 783.0, 786.0, 778.0, 790.0, 785.0, 789.0, 781.0, 778.0, 779.0, 781.0, 779.0, 781.0, 782.0, 789.0, 784.0, 786.0, 784.0, 793.0, 786.0, 785.0, 788.0, 789.0, 788.0, 789.0, 778.0, 777.0, 781.0, 780.0, 779.0, 776.0, 778.0, 768.0, 784.0, 786.0],
      "WindowWidth": [1660.0, 1652.0, 1656.0, 1651.0, 1664.0, 1661.0, 1652.0, 1657.0, 1659.0, 1656.0, 1648.0, 1661.0, 1657.0, 1670.0, 1666.0, 1669.0, 1667.0, 1663.0, 1668.0, 1656.0, 1653.0, 1661.0, 1658.0, 1668.0, 1663.0, 1677.0, 1669.0, 1668.0, 1676.0, 1669.0, 1656.0, 1656.0, 1650.0, 1662.0, 1659.0, 1660.0, 1660.0, 1662.0, 1688.0, 1703.0, 1692.0, 1677.0, 1676.0, 1680.0, 1684.0, 1681.0, 1683.0, 1677.0, 1675.0, 1669.0, 1661.0, 1676.0, 1675.0, 1677.0, 1680.0, 1679.0, 1667.0, 1684.0, 1666.0, 1677.0, 1679.0, 1681.0, 1672.0, 1674.0, 1665.0, 1653.0, 1652.0, 1651.0, 1639.0, 1652.0, 1655.0, 1659.0, 1662.0, 1667.0, 1673.0, 1674.0, 1663.0, 1661.0, 1669.0, 1661.0, 1659.0, 1669.0, 1674.0, 1656.0, 1654.0, 1665.0, 1670.0, 1668.0, 1650.0, 1663.0, 1661.0, 1664.0, 1662.0, 1665.0, 1663.0, 1672.0, 1667.0, 1676.0, 1666.0, 1677.0, 1671.0, 1685.0, 1666.0, 1660.0, 1660.0, 1663.0, 1657.0, 1662.0, 1666.0, 1678.0, 1675.0, 1672.0, 1669.0, 1693.0, 1675.0, 1673.0, 1680.0, 1685.0, 1675.0, 1671.0, 1669.0, 1660.0, 1664.0, 1653.0, 1657.0, 1650.0, 1655.0, 1630.0, 1657.0, 1672.0]
    },
    "slices": {}
  }
}