{
  "AcquisitionMatrixPE": 64,
  "AcquisitionNumber": 1,
  "AcquisitionTime": "10:49:35.415000",
  "BandwidthPerPixelPhaseEncode": 24.038,
  "BaseResolution": 64,
  "BodyPartExamined": "HEAD",
  "ConsistencyInfo": "N4_VD13A_LATEST_20120616",
  "ConversionSoftware": "dcm2niix",
  "ConversionSoftwareVersion": "v1.0.20181125  GCC6.3.0",
  "DerivedVendorReportedEchoSpacing": 0.000650012,
  "DeviceSerialNumber": "45250",
  "DwellTime": 4.6e-06,
  "EchoTime": 0.033,
  "EchoTrainLength": 64,
  "EffectiveEchoSpacing": 0.000650012,
  "FlipAngle": 90,
  "ImageOrientationPatientDICOM": [0.999919, -0.00416708, -0.0120012, 0.00349039, 0.998432, -0.055865],
  "ImageType": [
    "ORIGINAL",
    "PRIMARY",
    "M",
    "ND",
    "NORM",
    "MOSAIC"
],
  "ImagingFrequency": 123.215,
  "InPlanePhaseEncodingDirectionDICOM": "COL",
  "InstitutionAddress": "Kopernikusstr._26_Graz_Graz_AT_8010",
  "InstitutionName": "KFU",
  "InstitutionalDepartmentName": "Department",
  "MRAcquisitionType": "2D",
  "MagneticFieldStrength": 3,
  "Manufacturer": "Siemens",
  "ManufacturersModelName": "Skyra",
  "Modality": "MR",
  "PartialFourier": 1,
  "PatientPosition": "HFS",
  "PercentPhaseFOV": 100,
  "PhaseEncodingDirection": "j-",
  "PhaseEncodingSteps": 64,
  "PhaseResolution": 1,
  "PixelBandwidth": 1700,
  "ProcedureStepDescription": "KFU_Entw-Psy",
  "ProtocolName": "fMRI_3",
  "PulseSequenceDetails": "%SiemensSeq%_ep2d_pace",
  "ReceiveCoilActiveElements": "HE1-4",
  "ReceiveCoilName": "HeadNeck_20",
  "ReconMatrixPE": 64,
  "RepetitionTime": 2.34,
  "SAR": 0.183026,
  "ScanOptions": "FS",
  "ScanningSequence": "EP",
  "SequenceName": "_epfid2d1_64",
  "SequenceVariant": "SK",
  "SeriesDescription": "fMRI_3",
  "SeriesNumber": 8,
  "ShimSetting": [-1662, -3886, -4523, 366, 394, -430, 664, -519],
  "SliceThickness": 3,
  "SliceTiming": [2.25, 2.1825, 2.115, 2.0475, 1.9775, 1.91, 1.8425, 1.7725, 1.705, 1.6375, 1.57, 1.5, 1.4325, 1.365, 1.295, 1.2275, 1.16, 1.09, 1.0225, 0.955, 0.8875, 0.8175, 0.75, 0.6825, 0.6125, 0.545, 0.4775, 0.41, 0.34, 0.2725, 0.205, 0.135, 0.0675, 0],
  "SoftwareVersions": "syngo_MR_D13",
  "SpacingBetweenSlices": 3.3,
  "StationName": "FBMTMR1",
  "TaskName": "read",
  "TotalReadoutTime": 0.0409508,
  "TxRefAmp": 330.793,
  "dcmmeta_affine": [
    [-2.999758005142212, 0.010471155866980553, -0.04030996561050415, 96.52511596679688],
    [0.01250124629586935, 2.9952967166900635, -0.18420150876045227, -119.65528106689453],
    [-0.036003485321998596, 0.16759511828422546, 3.2946083545684814, -27.005916595458984],
    [0.0, 0.0, 0.0, 1.0]
],
  "dcmmeta_reorient_transform": [
    [0.0, -1.0, 0.0, 63.0],
    [1.0, 0.0, 0.0, 0.0],
    [0.0, 0.0, 1.0, 0.0],
    [0.0, 0.0, 0.0, 1.0]
],
  "dcmmeta_shape": [64, 64, 34, 124],
  "dcmmeta_slice_dim": 2,
  "dcmmeta_version": 0.6,
  "global": {
    "const": {
      "AcquisitionMatrix": [64, 0, 0, 64],
      "AngioFlag": "N",
      "BitsAllocated": 16,
      "BitsStored": 12,
      "BodyPartExamined": "HEAD",
      "Columns": 384,
      "EchoNumbers": 1,
      "EchoTime": 33.0,
      "EchoTrainLength": 64,
      "FlipAngle": 90.0,
      "HighBit": 11,
      "ImageOrientationPatient": [0.99991930050904, -0.0041670820968, -0.01200116229, 0.00349038534761, 0.9984322284102, -0.0558650381006],
      "ImagePositionPatient": [-578.82144753926, -546.29568324564, 16.128351697779],
      "ImageType": [
        "ORIGINAL",
        "PRIMARY",
        "M",
        "ND",
        "NORM",
        "MOSAIC"
],
      "ImagedNucleus": "1H",
      "ImagingFrequency": 123.214557,
      "InPlanePhaseEncodingDirection": "COL",
      "MRAcquisitionType": "2D",
      "MagneticFieldStrength": 3.0,
      "Manufacturer": "SIEMENS",
      "ManufacturerModelName": "Skyra",
      "Modality": "MR",
      "NumberOfAverages": 1.0,
      "NumberOfPhaseEncodingSteps": 64,
      "PercentPhaseFieldOfView": 100.0,
      "PercentSampling": 100.0,
      "PerformedProcedureStepStartTime": "102959.132000",
      "PhotometricInterpretation": "MONOCHROME2",
      "PixelBandwidth": 1700.0,
      "PixelRepresentation": 0,
      "PixelSpacing": [3.0, 3.0],
      "ProtocolName": "fMRI_3",
      "RepetitionTime": 2340.0,
      "Rows": 384,
      "SAR": 0.18302573519482,
      "SamplesPerPixel": 1,
      "ScanOptions": "FS",
      "ScanningSequence": "EP",
      "SequenceName": "*epfid2d1_64",
      "SequenceVariant": "SK",
      "SeriesDescription": "fMRI_3",
      "SeriesNumber": 8,
      "SeriesTime": "105022.592000",
      "SliceLocation": -21.461867331885,
      "SliceThickness": 3.0,
      "SmallestImagePixelValue": 0,
      "SoftwareVersions": "syngo MR D13",
      "SpacingBetweenSlices": 3.2999999726668,
      "SpecificCharacterSet": "ISO_IR 100",
      "StudyID": "1",
      "StudyTime": "102959.083000",
      "TransmitCoilName": "Body",
      "VariableFlipAngleFlag": "N",
      "WindowCenterWidthExplanation": "Algo1",
      "dBdt": 0.0},
    "slices": {}
  },
  "time": {
    "samples": {
      "AcquisitionNumber": [1, 2, 3, 4, 5, 6, 7, 8, 9, 10, 11, 12, 13, 14, 15, 16, 17, 18, 19, 20, 21, 22, 23, 24, 25, 26, 27, 28, 29, 30, 31, 32, 33, 34, 35, 36, 37, 38, 39, 40, 41, 42, 43, 44, 45, 46, 47, 48, 49, 50, 51, 52, 53, 54, 55, 56, 57, 58, 59, 60, 61, 62, 63, 64, 65, 66, 67, 68, 69, 70, 71, 72, 73, 74, 75, 76, 77, 78, 79, 80, 81, 82, 83, 84, 85, 86, 87, 88, 89, 90, 91, 92, 93, 94, 95, 96, 97, 98, 99, 100, 101, 102, 103, 104, 105, 106, 107, 108, 109, 110, 111, 112, 113, 114, 115, 116, 117, 118, 119, 120, 121, 122, 123, 124],
      "AcquisitionTime": ["104935.415000", "104937.755000", "104940.095000", "104942.435000", "104944.775000", "104947.115000", "104949.455000", "104951.795000", "104954.135000", "104956.475000", "104958.815000", "105001.155000", "105003.495000", "105005.835000", "105008.175000", "105010.515000", "105012.855000", "105015.195000", "105017.535000", "105019.875000", "105022.215000", "105024.555000", "105026.895000", "105029.235000", "105031.575000", "105033.915000", "105036.255000", "105038.595000", "105040.935000", "105043.275000", "105045.615000", "105047.955000", "105050.295000", "105052.635000", "105054.975000", "105057.315000", "105059.655000", "105101.995000", "105104.335000", "105106.675000", "105109.015000", "105111.355000", "105113.695000", "105116.035000", "105118.375000", "105120.715000", "105123.055000", "105125.395000", "105127.735000", "105130.075000", "105132.415000", "105134.755000", "105137.095000", "105139.435000", "105141.775000", "105144.115000", "105146.455000", "105148.795000", "105151.135000", "105153.475000", "105155.815000", "105158.155000", "105200.495000", "105202.835000", "105205.175000", "105207.515000", "105209.855000", "105212.195000", "105214.535000", "105216.875000", "105219.215000", "105221.555000", "105223.895000", "105226.235000", "105228.575000", "105230.915000", "105233.255000", "105235.595000", "105237.935000", "105240.275000", "105242.615000", "105244.955000", "105247.295000", "105249.635000", "105251.975000", "105254.315000", "105256.655000", "105258.995000", "105301.335000", "105303.675000", "105306.015000", "105308.355000", "105310.695000", "105313.035000", "105315.375000", "105317.715000", "105320.055000", "105322.395000", "105324.735000", "105327.075000", "105329.415000", "105331.755000", "105334.095000", "105336.435000", "105338.775000", "105341.115000", "105343.455000", "105345.795000", "105348.135000", "105350.475000", "105352.815000", "105355.155000", "105357.495000", "105359.835000", "105402.175000", "105404.515000", "105406.855000", "105409.195000", "105411.535000", "105413.875000", "105416.215000", "105418.555000", "105420.895000", "105423.235000"],
      "ContentTime": ["105022.597000", "105022.601000", "105022.604000", "105022.607000", "105022.617000", "105022.620000", "105022.623000", "105022.626000", "105022.629000", "105022.631000", "105022.634000", "105022.637000", "105022.640000", "105022.643000", "105022.645000", "105022.648000", "105022.651000", "105022.654000", "105022.657000", "105022.660000", "105022.663000", "105122.590000", "105122.593000", "105122.596000", "105122.599000", "105122.609000", "105122.612000", "105122.615000", "105122.618000", "105122.621000", "105122.624000", "105122.627000", "105122.629000", "105122.632000", "105122.635000", "105122.638000", "105122.640000", "105122.644000", "105122.647000", "105122.649000", "105122.652000", "105122.655000", "105122.658000", "105122.660000", "105122.663000", "105122.666000", "105222.589000", "105222.593000", "105222.602000", "105222.605000", "105222.608000", "105222.612000", "105222.615000", "105222.618000", "105222.621000", "105222.623000", "105222.626000", "105222.629000", "105222.632000", "105222.635000", "105222.638000", "105222.641000", "105222.644000", "105222.646000", "105222.650000", "105222.652000", "105222.655000", "105222.658000", "105222.661000", "105222.664000", "105222.666000", "105222.669000", "105322.590000", "105322.594000", "105322.597000", "105322.599000", "105322.602000", "105322.605000", "105322.608000", "105322.611000", "105322.614000", "105322.617000", "105322.620000", "105322.623000", "105322.626000", "105322.629000", "105322.632000", "105322.635000", "105322.638000", "105322.640000", "105322.644000", "105322.646000", "105322.649000", "105322.652000", "105322.656000", "105322.659000", "105322.662000", "105422.590000", "105422.594000", "105422.597000", "105422.599000", "105422.609000", "105422.612000", "105422.615000", "105422.618000", "105422.621000", "105422.624000", "105422.627000", "105422.629000", "105422.632000", "105422.635000", "105422.638000", "105422.641000", "105422.644000", "105422.647000", "105422.650000", "105422.653000", "105422.656000", "105422.659000", "105422.662000", "105422.665000", "105422.668000", "105422.670000", "105424.172000"],
      "InstanceCreationTime": ["105022.597000", "105022.601000", "105022.604000", "105022.607000", "105022.617000", "105022.620000", "105022.623000", "105022.626000", "105022.629000", "105022.631000", "105022.634000", "105022.637000", "105022.640000", "105022.643000", "105022.645000", "105022.648000", "105022.651000", "105022.654000", "105022.657000", "105022.660000", "105022.663000", "105122.590000", "105122.593000", "105122.596000", "105122.599000", "105122.609000", "105122.612000", "105122.615000", "105122.618000", "105122.621000", "105122.624000", "105122.627000", "105122.629000", "105122.632000", "105122.635000", "105122.638000", "105122.640000", "105122.644000", "105122.647000", "105122.649000", "105122.652000", "105122.655000", "105122.658000", "105122.660000", "105122.663000", "105122.666000", "105222.589000", "105222.593000", "105222.602000", "105222.605000", "105222.608000", "105222.612000", "105222.615000", "105222.618000", "105222.621000", "105222.623000", "105222.626000", "105222.629000", "105222.632000", "105222.635000", "105222.638000", "105222.641000", "105222.644000", "105222.646000", "105222.650000", "105222.652000", "105222.655000", "105222.658000", "105222.661000", "105222.664000", "105222.666000", "105222.669000", "105322.590000", "105322.594000", "105322.597000", "105322.599000", "105322.602000", "105322.605000", "105322.608000", "105322.611000", "105322.614000", "105322.617000", "105322.620000", "105322.623000", "105322.626000", "105322.629000", "105322.632000", "105322.635000", "105322.638000", "105322.640000", "105322.644000", "105322.646000", "105322.649000", "105322.652000", "105322.656000", "105322.659000", "105322.662000", "105422.590000", "105422.594000", "105422.597000", "105422.599000", "105422.609000", "105422.612000", "105422.615000", "105422.618000", "105422.621000", "105422.624000", "105422.627000", "105422.629000", "105422.632000", "105422.635000", "105422.638000", "105422.641000", "105422.644000", "105422.647000", "105422.650000", "105422.653000", "105422.656000", "105422.659000", "105422.662000", "105422.665000", "105422.668000", "105422.670000", "105424.172000"],
      "InstanceNumber": [1, 2, 3, 4, 5, 6, 7, 8, 9, 10, 11, 12, 13, 14, 15, 16, 17, 18, 19, 20, 21, 22, 23, 24, 25, 26, 27, 28, 29, 30, 31, 32, 33, 34, 35, 36, 37, 38, 39, 40, 41, 42, 43, 44, 45, 46, 47, 48, 49, 50, 51, 52, 53, 54, 55, 56, 57, 58, 59, 60, 61, 62, 63, 64, 65, 66, 67, 68, 69, 70, 71, 72, 73, 74, 75, 76, 77, 78, 79, 80, 81, 82, 83, 84, 85, 86, 87, 88, 89, 90, 91, 92, 93, 94, 95, 96, 97, 98, 99, 100, 101, 102, 103, 104, 105, 106, 107, 108, 109, 110, 111, 112, 113, 114, 115, 116, 117, 118, 119, 120, 121, 122, 123, 124],
      "LargestImagePixelValue": [2140, 2414, 2538, 2307, 2219, 2067, 2723, 2468, 2232, 2141, 2098, 1988, 2415, 1958, 2469, 2498, 2219, 2151, 2464, 2196, 2320, 2173, 2196, 2572, 2729, 3103, 2331, 1955, 2077, 1892, 2317, 1976, 2116, 2181, 2185, 2221, 1891, 2345, 3265, 3124, 2347, 1909, 1915, 2023, 1996, 1907, 2406, 2037, 2208, 2363, 2001, 2398, 2414, 2330, 2046, 2152, 2175, 2696, 2770, 2190, 2340, 2104, 2219, 2682, 1988, 1942, 2043, 2215, 2057, 1978, 2357, 2073, 2970, 2068, 2782, 2195, 2340, 2560, 2478, 2367, 2199, 2047, 2128, 1986, 2000, 2112, 2671, 2349, 1921, 2236, 1966, 1969, 2085, 2182, 2532, 2037, 2469, 2406, 2090, 2661, 2290, 2272, 1919, 1994, 2164, 2241, 1785, 2640, 2608, 1914, 2034, 2232, 1927, 2212, 2325, 2378, 2157, 2328, 2157, 2442, 2546, 2077, 2196, 3127],
      "WindowCenter": [829.0, 815.0, 812.0, 832.0, 826.0, 829.0, 829.0, 824.0, 824.0, 828.0, 826.0, 825.0, 827.0, 827.0, 832.0, 828.0, 829.0, 827.0, 825.0, 831.0, 829.0, 829.0, 827.0, 817.0, 828.0, 820.0, 822.0, 830.0, 827.0, 828.0, 829.0, 833.0, 828.0, 827.0, 828.0, 830.0, 831.0, 831.0, 822.0, 823.0, 819.0, 821.0, 817.0, 821.0, 822.0, 827.0, 829.0, 828.0, 827.0, 828.0, 830.0, 831.0, 828.0, 833.0, 830.0, 829.0, 831.0, 830.0, 829.0, 829.0, 826.0, 830.0, 824.0, 825.0, 827.0, 825.0, 824.0, 827.0, 829.0, 831.0, 834.0, 829.0, 830.0, 831.0, 829.0, 836.0, 831.0, 831.0, 827.0, 824.0, 825.0, 824.0, 823.0, 830.0, 829.0, 827.0, 827.0, 826.0, 824.0, 828.0, 830.0, 833.0, 833.0, 833.0, 832.0, 832.0, 831.0, 833.0, 830.0, 834.0, 831.0, 831.0, 827.0, 833.0, 833.0, 834.0, 830.0, 834.0, 830.0, 832.0, 831.0, 833.0, 831.0, 833.0, 834.0, 833.0, 832.0, 831.0, 833.0, 832.0, 834.0, 833.0, 834.0, 833.0],
      "WindowWidth": [1768.0, 1741.0, 1750.0, 1777.0, 1768.0, 1778.0, 1777.0, 1770.0, 1767.0, 1774.0, 1770.0, 1771.0, 1779.0, 1775.0, 1786.0, 1780.0, 1779.0, 1777.0, 1777.0, 1781.0, 1781.0, 1774.0, 1771.0, 1772.0, 1781.0, 1752.0, 1751.0, 1781.0, 1773.0, 1778.0, 1782.0, 1786.0, 1776.0, 1775.0, 1774.0, 1780.0, 1784.0, 1786.0, 1778.0, 1760.0, 1749.0, 1756.0, 1746.0, 1759.0, 1761.0, 1773.0, 1777.0, 1773.0, 1777.0, 1780.0, 1779.0, 1782.0, 1778.0, 1788.0, 1783.0, 1783.0, 1783.0, 1786.0, 1783.0, 1778.0, 1771.0, 1778.0, 1769.0, 1765.0, 1769.0, 1770.0, 1768.0, 1775.0, 1779.0, 1782.0, 1791.0, 1778.0, 1783.0, 1782.0, 1781.0, 1795.0, 1786.0, 1786.0, 1772.0, 1768.0, 1766.0, 1768.0, 1766.0, 1776.0, 1776.0, 1776.0, 1777.0, 1770.0, 1765.0, 1776.0, 1779.0, 1789.0, 1790.0, 1790.0, 1791.0, 1784.0, 1786.0, 1788.0, 1778.0, 1794.0, 1785.0, 1783.0, 1774.0, 1789.0, 1791.0, 1789.0, 1783.0, 1794.0, 1786.0, 1783.0, 1780.0, 1793.0, 1786.0, 1791.0, 1792.0, 1789.0, 1787.0, 1788.0, 1792.0, 1789.0, 1793.0, 1790.0, 1791.0, 1792.0]
    },
    "slices": {}
  }
}