{
  "AcquisitionMatrixPE": 64,
  "AcquisitionNumber": 1,
  "AcquisitionTime": "10:16:32.322500",
  "BandwidthPerPixelPhaseEncode": 24.038,
  "BaseResolution": 64,
  "BodyPartExamined": "HEAD",
  "ConsistencyInfo": "N4_VD13A_LATEST_20120616",
  "ConversionSoftware": "dcm2niix",
  "ConversionSoftwareVersion": "v1.0.20181125  GCC6.3.0",
  "DerivedVendorReportedEchoSpacing": 0.000650012,
  "DeviceSerialNumber": "45250",
  "DwellTime": 4.6e-06,
  "EchoTime": 0.033,
  "EchoTrainLength": 64,
  "EffectiveEchoSpacing": 0.000650012,
  "FlipAngle": 90,
  "ImageOrientationPatientDICOM": [0.999887, 0.00794238, -0.0127385, -0.00872593, 0.997995, -0.062683],
  "ImageType": [
    "ORIGINAL",
    "PRIMARY",
    "M",
    "ND",
    "NORM",
    "MOSAIC"
],
  "ImagingFrequency": 123.214,
  "InPlanePhaseEncodingDirectionDICOM": "COL",
  "InstitutionAddress": "Kopernikusstr._26_Graz_Graz_AT_8010",
  "InstitutionName": "KFU",
  "InstitutionalDepartmentName": "Department",
  "MRAcquisitionType": "2D",
  "MagneticFieldStrength": 3,
  "Manufacturer": "Siemens",
  "ManufacturersModelName": "Skyra",
  "Modality": "MR",
  "PartialFourier": 1,
  "PatientPosition": "HFS",
  "PercentPhaseFOV": 100,
  "PhaseEncodingDirection": "j-",
  "PhaseEncodingSteps": 64,
  "PhaseResolution": 1,
  "PixelBandwidth": 1700,
  "ProcedureStepDescription": "KFU_Entw-Psy",
  "ProtocolName": "fMRI_2",
  "PulseSequenceDetails": "%SiemensSeq%_ep2d_pace",
  "ReceiveCoilActiveElements": "HE1-4",
  "ReceiveCoilName": "HeadNeck_20",
  "ReconMatrixPE": 64,
  "RepetitionTime": 2.34,
  "SAR": 0.170954,
  "ScanOptions": "FS",
  "ScanningSequence": "EP",
  "SequenceName": "_epfid2d1_64",
  "SequenceVariant": "SK",
  "SeriesDescription": "fMRI_2",
  "SeriesNumber": 5,
  "ShimSetting": [-1555, -3709, -4434, 406, 285, -115, 368, -222],
  "SliceThickness": 3,
  "SliceTiming": [2.25, 2.1825, 2.115, 2.045, 1.9775, 1.91, 1.84, 1.7725, 1.705, 1.6375, 1.5675, 1.5, 1.4325, 1.3625, 1.295, 1.2275, 1.1575, 1.09, 1.0225, 0.955, 0.885, 0.8175, 0.75, 0.68, 0.6125, 0.545, 0.4775, 0.4075, 0.34, 0.2725, 0.2025, 0.135, 0.0675, 0],
  "SoftwareVersions": "syngo_MR_D13",
  "SpacingBetweenSlices": 3.3,
  "StationName": "FBMTMR1",
  "TaskName": "read",
  "TotalReadoutTime": 0.0409508,
  "TxRefAmp": 331.204,
  "dcmmeta_affine": [
    [-2.999661922454834, -0.026177803054451942, -0.04030996188521385, 97.65816497802734],
    [-0.023827148601412773, 2.993986129760742, -0.20719754695892334, -109.77188873291016],
    [-0.03821558877825737, 0.18804912269115448, 3.2932422161102295, -13.405694007873535],
    [0.0, 0.0, 0.0, 1.0]
],
  "dcmmeta_reorient_transform": [
    [0.0, -1.0, 0.0, 63.0],
    [1.0, 0.0, 0.0, 0.0],
    [0.0, 0.0, 1.0, 0.0],
    [0.0, 0.0, 0.0, 1.0]
],
  "dcmmeta_shape": [64, 64, 34, 127],
  "dcmmeta_slice_dim": 2,
  "dcmmeta_version": 0.6,
  "global": {
    "const": {
      "AcquisitionMatrix": [64, 0, 0, 64],
      "AngioFlag": "N",
      "BitsAllocated": 16,
      "BitsStored": 12,
      "BodyPartExamined": "HEAD",
      "Columns": 384,
      "EchoNumbers": 1,
      "EchoTime": 33.0,
      "EchoTrainLength": 64,
      "FlipAngle": 90.0,
      "HighBit": 11,
      "ImageOrientationPatient": [0.99988731786704, 0.00794238299001, -0.0127385290006, -0.008725934202, 0.99799533781613, -0.0626830421213],
      "ImagePositionPatient": [-571.76642547691, -561.6993363213, 34.643755561633],
      "ImageType": [
        "ORIGINAL",
        "PRIMARY",
        "M",
        "ND",
        "NORM",
        "MOSAIC"
],
      "ImagedNucleus": "1H",
      "ImagingFrequency": 123.214461,
      "InPlanePhaseEncodingDirection": "COL",
      "MRAcquisitionType": "2D",
      "MagneticFieldStrength": 3.0,
      "Manufacturer": "SIEMENS",
      "ManufacturerModelName": "Skyra",
      "Modality": "MR",
      "NumberOfAverages": 1.0,
      "NumberOfPhaseEncodingSteps": 64,
      "PercentPhaseFieldOfView": 100.0,
      "PercentSampling": 100.0,
      "PerformedProcedureStepStartTime": "100723.915000",
      "PhotometricInterpretation": "MONOCHROME2",
      "PixelBandwidth": 1700.0,
      "PixelRepresentation": 0,
      "PixelSpacing": [3.0, 3.0],
      "ProtocolName": "fMRI_2",
      "RepetitionTime": 2340.0,
      "Rows": 384,
      "SAR": 0.17095393112526,
      "SamplesPerPixel": 1,
      "ScanOptions": "FS",
      "ScanningSequence": "EP",
      "SequenceName": "*epfid2d1_64",
      "SequenceVariant": "SK",
      "SeriesDescription": "fMRI_2",
      "SeriesNumber": 5,
      "SeriesTime": "101737.182000",
      "SliceLocation": -7.6788869689459,
      "SliceThickness": 3.0,
      "SmallestImagePixelValue": 0,
      "SoftwareVersions": "syngo MR D13",
      "SpacingBetweenSlices": 3.2999999504473,
      "SpecificCharacterSet": "ISO_IR 100",
      "StudyID": "1",
      "StudyTime": "100723.865000",
      "TransmitCoilName": "Body",
      "VariableFlipAngleFlag": "N",
      "WindowCenterWidthExplanation": "Algo1",
      "dBdt": 0.0},
    "slices": {}
  },
  "time": {
    "samples": {
      "AcquisitionNumber": [1, 2, 3, 4, 5, 6, 7, 8, 9, 10, 11, 12, 13, 14, 15, 16, 17, 18, 19, 20, 21, 22, 23, 24, 25, 26, 27, 28, 29, 30, 31, 32, 33, 34, 35, 36, 37, 38, 39, 40, 41, 42, 43, 44, 45, 46, 47, 48, 49, 50, 51, 52, 53, 54, 55, 56, 57, 58, 59, 60, 61, 62, 63, 64, 65, 66, 67, 68, 69, 70, 71, 72, 73, 74, 75, 76, 77, 78, 79, 80, 81, 82, 83, 84, 85, 86, 87, 88, 89, 90, 91, 92, 93, 94, 95, 96, 97, 98, 99, 100, 101, 102, 103, 104, 105, 106, 107, 108, 109, 110, 111, 112, 113, 114, 115, 116, 117, 118, 119, 120, 121, 122, 123, 124, 125, 126, 127],
      "AcquisitionTime": ["101632.322500", "101634.662500", "101637.002500", "101639.342500", "101641.682500", "101644.022500", "101646.362500", "101648.702500", "101651.042500", "101653.382500", "101655.722500", "101658.062500", "101700.402500", "101702.742500", "101705.082500", "101707.422500", "101709.762500", "101712.102500", "101714.442500", "101716.782500", "101719.122500", "101721.462500", "101723.802500", "101726.142500", "101728.482500", "101730.822500", "101733.162500", "101735.502500", "101737.842500", "101740.182500", "101742.522500", "101744.862500", "101747.202500", "101749.542500", "101751.882500", "101754.222500", "101756.562500", "101758.902500", "101801.242500", "101803.582500", "101805.922500", "101808.262500", "101810.602500", "101812.942500", "101815.282500", "101817.622500", "101819.962500", "101822.302500", "101824.642500", "101826.982500", "101829.322500", "101831.662500", "101834.002500", "101836.342500", "101838.682500", "101841.022500", "101843.362500", "101845.702500", "101848.042500", "101850.382500", "101852.722500", "101855.062500", "101857.402500", "101859.742500", "101902.082500", "101904.422500", "101906.762500", "101909.102500", "101911.442500", "101913.782500", "101916.122500", "101918.462500", "101920.802500", "101923.142500", "101925.482500", "101927.822500", "101930.162500", "101932.502500", "101934.842500", "101937.182500", "101939.522500", "101941.862500", "101944.202500", "101946.542500", "101948.882500", "101951.222500", "101953.562500", "101955.902500", "101958.242500", "102000.582500", "102002.922500", "102005.262500", "102007.602500", "102009.942500", "102012.282500", "102014.622500", "102016.962500", "102019.302500", "102021.642500", "102023.982500", "102026.322500", "102028.662500", "102031.002500", "102033.342500", "102035.682500", "102038.022500", "102040.362500", "102042.702500", "102045.042500", "102047.382500", "102049.722500", "102052.062500", "102054.402500", "102056.742500", "102059.082500", "102101.422500", "102103.762500", "102106.102500", "102108.442500", "102110.782500", "102113.122500", "102115.462500", "102117.802500", "102120.142500", "102122.482500", "102124.822500", "102127.162500"],
      "ContentTime": ["101737.186000", "101737.190000", "101737.201000", "101737.204000", "101737.206000", "101737.209000", "101737.212000", "101737.215000", "101737.218000", "101737.221000", "101737.223000", "101737.226000", "101737.229000", "101737.232000", "101737.234000", "101737.237000", "101737.240000", "101737.242000", "101737.246000", "101737.249000", "101737.251000", "101737.254000", "101737.257000", "101737.259000", "101737.262000", "101737.265000", "101737.268000", "101737.270000", "101837.181000", "101837.184000", "101837.187000", "101837.189000", "101837.192000", "101837.195000", "101837.198000", "101837.200000", "101837.207000", "101837.210000", "101837.212000", "101837.215000", "101837.218000", "101837.221000", "101837.224000", "101837.226000", "101837.230000", "101837.232000", "101837.235000", "101837.238000", "101837.241000", "101837.243000", "101837.246000", "101837.249000", "101837.252000", "101837.255000", "101937.180000", "101937.183000", "101937.186000", "101937.189000", "101937.199000", "101937.202000", "101937.205000", "101937.208000", "101937.211000", "101937.214000", "101937.217000", "101937.220000", "101937.222000", "101937.225000", "101937.235000", "101937.238000", "101937.241000", "101937.244000", "101937.246000", "101937.249000", "101937.252000", "101937.255000", "101937.257000", "101937.260000", "101937.263000", "102037.180000", "102037.183000", "102037.186000", "102037.188000", "102037.198000", "102037.201000", "102037.203000", "102037.206000", "102037.209000", "102037.212000", "102037.215000", "102037.218000", "102037.221000", "102037.223000", "102037.226000", "102037.229000", "102037.231000", "102037.234000", "102037.237000", "102037.240000", "102037.243000", "102037.248000", "102037.251000", "102037.253000", "102037.256000", "102037.260000", "102128.015000", "102128.019000", "102128.022000", "102128.024000", "102128.027000", "102128.033000", "102128.037000", "102128.041000", "102128.044000", "102128.047000", "102128.050000", "102128.053000", "102128.056000", "102128.059000", "102128.062000", "102128.065000", "102128.068000", "102128.071000", "102128.074000", "102128.077000", "102128.081000", "102128.084000"],
      "InstanceCreationTime": ["101737.186000", "101737.190000", "101737.201000", "101737.204000", "101737.206000", "101737.209000", "101737.212000", "101737.215000", "101737.218000", "101737.221000", "101737.223000", "101737.226000", "101737.229000", "101737.232000", "101737.234000", "101737.237000", "101737.240000", "101737.242000", "101737.246000", "101737.249000", "101737.251000", "101737.254000", "101737.257000", "101737.259000", "101737.262000", "101737.265000", "101737.268000", "101737.270000", "101837.181000", "101837.184000", "101837.187000", "101837.189000", "101837.192000", "101837.195000", "101837.198000", "101837.200000", "101837.207000", "101837.210000", "101837.212000", "101837.215000", "101837.218000", "101837.221000", "101837.224000", "101837.226000", "101837.230000", "101837.232000", "101837.235000", "101837.238000", "101837.241000", "101837.243000", "101837.246000", "101837.249000", "101837.252000", "101837.255000", "101937.180000", "101937.183000", "101937.186000", "101937.189000", "101937.199000", "101937.202000", "101937.205000", "101937.208000", "101937.211000", "101937.214000", "101937.217000", "101937.220000", "101937.222000", "101937.225000", "101937.235000", "101937.238000", "101937.241000", "101937.244000", "101937.246000", "101937.249000", "101937.252000", "101937.255000", "101937.257000", "101937.260000", "101937.263000", "102037.180000", "102037.183000", "102037.186000", "102037.188000", "102037.198000", "102037.201000", "102037.203000", "102037.206000", "102037.209000", "102037.212000", "102037.215000", "102037.218000", "102037.221000", "102037.223000", "102037.226000", "102037.229000", "102037.231000", "102037.234000", "102037.237000", "102037.240000", "102037.243000", "102037.248000", "102037.251000", "102037.253000", "102037.256000", "102037.260000", "102128.015000", "102128.019000", "102128.022000", "102128.024000", "102128.027000", "102128.033000", "102128.037000", "102128.041000", "102128.044000", "102128.047000", "102128.050000", "102128.053000", "102128.056000", "102128.059000", "102128.062000", "102128.065000", "102128.068000", "102128.071000", "102128.074000", "102128.077000", "102128.081000", "102128.084000"],
      "InstanceNumber": [1, 2, 3, 4, 5, 6, 7, 8, 9, 10, 11, 12, 13, 14, 15, 16, 17, 18, 19, 20, 21, 22, 23, 24, 25, 26, 27, 28, 29, 30, 31, 32, 33, 34, 35, 36, 37, 38, 39, 40, 41, 42, 43, 44, 45, 46, 47, 48, 49, 50, 51, 52, 53, 54, 55, 56, 57, 58, 59, 60, 61, 62, 63, 64, 65, 66, 67, 68, 69, 70, 71, 72, 73, 74, 75, 76, 77, 78, 79, 80, 81, 82, 83, 84, 85, 86, 87, 88, 89, 90, 91, 92, 93, 94, 95, 96, 97, 98, 99, 100, 101, 102, 103, 104, 105, 106, 107, 108, 109, 110, 111, 112, 113, 114, 115, 116, 117, 118, 119, 120, 121, 122, 123, 124, 125, 126, 127],
      "LargestImagePixelValue": [1705, 2012, 2125, 2269, 2810, 1719, 1703, 1781, 1652, 2088, 2194, 1712, 1677, 2279, 2072, 1687, 1940, 2090, 1733, 1695, 1701, 2275, 2143, 1703, 1774, 1854, 1716, 2034, 2038, 2186, 1979, 1708, 1673, 1670, 1673, 1777, 1956, 2042, 1609, 1716, 1681, 1788, 1673, 2050, 1730, 1679, 2181, 1844, 1725, 1682, 1625, 1850, 2209, 2148, 1687, 1689, 1663, 1774, 1701, 1695, 2040, 2137, 1906, 1894, 1696, 1705, 1682, 1697, 1684, 2105, 2849, 1881, 1849, 1772, 1722, 2150, 1774, 1695, 2063, 1713, 1860, 2368, 1690, 1717, 1877, 1639, 1774, 2688, 1584, 2011, 2142, 1729, 1745, 2095, 1717, 2469, 2305, 3014, 1971, 1712, 1668, 1738, 1973, 2440, 1822, 1695, 1684, 2435, 2010, 1943, 1972, 1684, 1719, 1727, 2070, 2269, 1707, 1769, 2428, 2270, 1674, 1720, 1732, 1875, 2413, 2621, 1912],
      "WindowCenter": [788.0, 786.0, 783.0, 779.0, 781.0, 781.0, 783.0, 785.0, 784.0, 782.0, 783.0, 783.0, 783.0, 786.0, 781.0, 780.0, 779.0, 779.0, 780.0, 783.0, 786.0, 787.0, 782.0, 780.0, 784.0, 786.0, 786.0, 786.0, 782.0, 783.0, 783.0, 784.0, 785.0, 785.0, 785.0, 788.0, 785.0, 786.0, 782.0, 787.0, 785.0, 788.0, 785.0, 788.0, 787.0, 784.0, 787.0, 785.0, 787.0, 786.0, 784.0, 786.0, 784.0, 784.0, 779.0, 784.0, 786.0, 782.0, 783.0, 786.0, 785.0, 785.0, 780.0, 781.0, 782.0, 781.0, 783.0, 785.0, 781.0, 773.0, 780.0, 783.0, 782.0, 783.0, 781.0, 786.0, 781.0, 781.0, 782.0, 783.0, 781.0, 784.0, 781.0, 783.0, 785.0, 784.0, 782.0, 783.0, 780.0, 785.0, 784.0, 786.0, 784.0, 789.0, 787.0, 787.0, 781.0, 781.0, 778.0, 781.0, 785.0, 785.0, 785.0, 783.0, 782.0, 786.0, 790.0, 790.0, 783.0, 780.0, 780.0, 783.0, 785.0, 786.0, 787.0, 783.0, 780.0, 783.0, 784.0, 784.0, 782.0, 789.0, 793.0, 788.0, 787.0, 787.0, 781.0],
      "WindowWidth": [1652.0, 1648.0, 1641.0, 1632.0, 1637.0, 1636.0, 1642.0, 1645.0, 1644.0, 1640.0, 1640.0, 1640.0, 1650.0, 1649.0, 1636.0, 1634.0, 1632.0, 1632.0, 1637.0, 1642.0, 1648.0, 1651.0, 1640.0, 1634.0, 1643.0, 1646.0, 1647.0, 1648.0, 1639.0, 1642.0, 1643.0, 1644.0, 1647.0, 1645.0, 1652.0, 1654.0, 1645.0, 1647.0, 1639.0, 1652.0, 1646.0, 1653.0, 1645.0, 1653.0, 1651.0, 1643.0, 1653.0, 1645.0, 1648.0, 1648.0, 1644.0, 1648.0, 1642.0, 1643.0, 1633.0, 1643.0, 1648.0, 1640.0, 1641.0, 1647.0, 1646.0, 1646.0, 1633.0, 1637.0, 1640.0, 1638.0, 1641.0, 1647.0, 1636.0, 1617.0, 1642.0, 1639.0, 1637.0, 1644.0, 1637.0, 1648.0, 1635.0, 1636.0, 1640.0, 1642.0, 1638.0, 1644.0, 1636.0, 1642.0, 1646.0, 1640.0, 1639.0, 1643.0, 1627.0, 1649.0, 1645.0, 1649.0, 1643.0, 1654.0, 1648.0, 1651.0, 1636.0, 1637.0, 1631.0, 1638.0, 1648.0, 1646.0, 1645.0, 1643.0, 1641.0, 1650.0, 1655.0, 1658.0, 1641.0, 1635.0, 1637.0, 1641.0, 1645.0, 1648.0, 1648.0, 1643.0, 1635.0, 1644.0, 1647.0, 1640.0, 1636.0, 1658.0, 1664.0, 1656.0, 1655.0, 1652.0, 1635.0]
    },
    "slices": {}
  }
}