{
  "AcquisitionMatrixPE": 64,
  "AcquisitionNumber": 1,
  "AcquisitionTime": "13:35:34.110000",
  "BandwidthPerPixelPhaseEncode": 24.038,
  "BaseResolution": 64,
  "BodyPartExamined": "HEAD",
  "ConsistencyInfo": "N4_VD13A_LATEST_20120616",
  "ConversionSoftware": "dcm2niix",
  "ConversionSoftwareVersion": "v1.0.20181125  GCC6.3.0",
  "DerivedVendorReportedEchoSpacing": 0.000650012,
  "DeviceSerialNumber": "45250",
  "DwellTime": 4.6e-06,
  "EchoTime": 0.033,
  "EchoTrainLength": 64,
  "EffectiveEchoSpacing": 0.000650012,
  "FlipAngle": 90,
  "ImageOrientationPatientDICOM": [0.999376, 0.0295591, -0.0193539, -0.0331527, 0.973925, -0.224434],
  "ImageType": [
    "ORIGINAL",
    "PRIMARY",
    "M",
    "ND",
    "NORM",
    "MOSAIC"
],
  "ImagingFrequency": 123.215,
  "InPlanePhaseEncodingDirectionDICOM": "COL",
  "InstitutionAddress": "Kopernikusstr._26_Graz_Graz_AT_8010",
  "InstitutionName": "KFU",
  "InstitutionalDepartmentName": "Department",
  "MRAcquisitionType": "2D",
  "MagneticFieldStrength": 3,
  "Manufacturer": "Siemens",
  "ManufacturersModelName": "Skyra",
  "Modality": "MR",
  "PartialFourier": 1,
  "PatientPosition": "HFS",
  "PercentPhaseFOV": 100,
  "PhaseEncodingDirection": "j-",
  "PhaseEncodingSteps": 64,
  "PhaseResolution": 1,
  "PixelBandwidth": 1700,
  "ProcedureStepDescription": "KFU_Entw-Psy",
  "ProtocolName": "fMRI_2",
  "PulseSequenceDetails": "%SiemensSeq%_ep2d_pace",
  "ReceiveCoilActiveElements": "HE1-4",
  "ReceiveCoilName": "HeadNeck_20",
  "ReconMatrixPE": 64,
  "RepetitionTime": 2.34,
  "SAR": 0.176752,
  "ScanOptions": "FS",
  "ScanningSequence": "EP",
  "SequenceName": "_epfid2d1_64",
  "SequenceVariant": "SK",
  "SeriesDescription": "fMRI_2",
  "SeriesNumber": 5,
  "ShimSetting": [-1586, -3700, -4300, 564, 553, 44, 78, -353],
  "SliceThickness": 3,
  "SliceTiming": [2.25, 2.1825, 2.115, 2.045, 1.9775, 1.91, 1.84, 1.7725, 1.705, 1.6375, 1.5675, 1.5, 1.4325, 1.3625, 1.295, 1.2275, 1.16, 1.09, 1.0225, 0.955, 0.885, 0.8175, 0.75, 0.6825, 0.6125, 0.545, 0.4775, 0.4075, 0.34, 0.2725, 0.2025, 0.135, 0.0675, 0],
  "SoftwareVersions": "syngo_MR_D13",
  "SpacingBetweenSlices": 3.3,
  "StationName": "FBMTMR1",
  "TaskName": "read",
  "TotalReadoutTime": 0.0409508,
  "TxRefAmp": 328.231,
  "dcmmeta_affine": [
    [-2.998126983642578, -0.09945819526910782, -0.04030996188521385, 101.08555603027344],
    [-0.08867734670639038, 2.9217755794525146, -0.7422873377799988, -101.44882202148438],
    [-0.05806157737970352, 0.6733021140098572, 3.2151803970336914, -36.416175842285156],
    [0.0, 0.0, 0.0, 1.0]
],
  "dcmmeta_reorient_transform": [
    [0.0, -1.0, 0.0, 63.0],
    [1.0, 0.0, 0.0, 0.0],
    [0.0, 0.0, 1.0, 0.0],
    [0.0, 0.0, 0.0, 1.0]
],
  "dcmmeta_shape": [64, 64, 34, 128],
  "dcmmeta_slice_dim": 2,
  "dcmmeta_version": 0.6,
  "global": {
    "const": {
      "AcquisitionMatrix": [64, 0, 0, 64],
      "AngioFlag": "N",
      "BitsAllocated": 16,
      "BitsStored": 12,
      "BodyPartExamined": "HEAD",
      "Columns": 384,
      "EchoNumbers": 1,
      "EchoTime": 33.0,
      "EchoTrainLength": 64,
      "FlipAngle": 90.0,
      "HighBit": 11,
      "ImageOrientationPatient": [0.99937564849241, 0.02955911569083, -0.0193538595623, -0.0331527309231, 0.9739251814077, -0.2244340380877],
      "ImagePositionPatient": [-558.60668832738, -564.29550264462, 123.02004796423],
      "ImageType": [
        "ORIGINAL",
        "PRIMARY",
        "M",
        "ND",
        "NORM",
        "MOSAIC"
],
      "ImagedNucleus": "1H",
      "ImagingFrequency": 123.214499,
      "InPlanePhaseEncodingDirection": "COL",
      "MRAcquisitionType": "2D",
      "MagneticFieldStrength": 3.0,
      "Manufacturer": "SIEMENS",
      "ManufacturerModelName": "Skyra",
      "Modality": "MR",
      "NumberOfAverages": 1.0,
      "NumberOfPhaseEncodingSteps": 64,
      "PercentPhaseFieldOfView": 100.0,
      "PercentSampling": 100.0,
      "PerformedProcedureStepStartTime": "132400.594000",
      "PhotometricInterpretation": "MONOCHROME2",
      "PixelBandwidth": 1700.0,
      "PixelRepresentation": 0,
      "PixelSpacing": [3.0, 3.0],
      "ProtocolName": "fMRI_2",
      "RepetitionTime": 2340.0,
      "Rows": 384,
      "SAR": 0.17675195905266,
      "SamplesPerPixel": 1,
      "ScanOptions": "FS",
      "ScanningSequence": "EP",
      "SequenceName": "*epfid2d1_64",
      "SequenceVariant": "SK",
      "SeriesDescription": "fMRI_2",
      "SeriesNumber": 5,
      "SeriesTime": "133628.760000",
      "SliceLocation": -13.895502497917,
      "SliceThickness": 3.0,
      "SmallestImagePixelValue": 0,
      "SoftwareVersions": "syngo MR D13",
      "SpacingBetweenSlices": 3.3000000668198,
      "SpecificCharacterSet": "ISO_IR 100",
      "StudyID": "1",
      "StudyTime": "132400.543000",
      "TransmitCoilName": "Body",
      "VariableFlipAngleFlag": "N",
      "WindowCenterWidthExplanation": "Algo1",
      "dBdt": 0.0},
    "slices": {}
  },
  "time": {
    "samples": {
      "AcquisitionNumber": [1, 2, 3, 4, 5, 6, 7, 8, 9, 10, 11, 12, 13, 14, 15, 16, 17, 18, 19, 20, 21, 22, 23, 24, 25, 26, 27, 28, 29, 30, 31, 32, 33, 34, 35, 36, 37, 38, 39, 40, 41, 42, 43, 44, 45, 46, 47, 48, 49, 50, 51, 52, 53, 54, 55, 56, 57, 58, 59, 60, 61, 62, 63, 64, 65, 66, 67, 68, 69, 70, 71, 72, 73, 74, 75, 76, 77, 78, 79, 80, 81, 82, 83, 84, 85, 86, 87, 88, 89, 90, 91, 92, 93, 94, 95, 96, 97, 98, 99, 100, 101, 102, 103, 104, 105, 106, 107, 108, 109, 110, 111, 112, 113, 114, 115, 116, 117, 118, 119, 120, 121, 122, 123, 124, 125, 126, 127, 128],
      "AcquisitionTime": ["133534.110000", "133536.450000", "133538.790000", "133541.130000", "133543.470000", "133545.810000", "133548.150000", "133550.490000", "133552.830000", "133555.170000", "133557.510000", "133559.850000", "133602.190000", "133604.530000", "133606.870000", "133609.210000", "133611.550000", "133613.890000", "133616.230000", "133618.570000", "133620.910000", "133623.250000", "133625.590000", "133627.930000", "133630.270000", "133632.610000", "133634.950000", "133637.290000", "133639.630000", "133641.970000", "133644.310000", "133646.650000", "133648.990000", "133651.330000", "133653.670000", "133656.010000", "133658.350000", "133700.690000", "133703.030000", "133705.370000", "133707.710000", "133710.050000", "133712.390000", "133714.730000", "133717.070000", "133719.410000", "133721.750000", "133724.090000", "133726.430000", "133728.770000", "133731.110000", "133733.450000", "133735.790000", "133738.130000", "133740.470000", "133742.810000", "133745.150000", "133747.490000", "133749.830000", "133752.170000", "133754.510000", "133756.850000", "133759.190000", "133801.530000", "133803.870000", "133806.210000", "133808.550000", "133810.890000", "133813.230000", "133815.570000", "133817.910000", "133820.250000", "133822.590000", "133824.930000", "133827.270000", "133829.610000", "133831.950000", "133834.290000", "133836.630000", "133838.970000", "133841.310000", "133843.650000", "133845.990000", "133848.330000", "133850.670000", "133853.010000", "133855.350000", "133857.690000", "133900.030000", "133902.370000", "133904.710000", "133907.050000", "133909.390000", "133911.730000", "133914.070000", "133916.410000", "133918.750000", "133921.090000", "133923.430000", "133925.770000", "133928.110000", "133930.450000", "133932.790000", "133935.130000", "133937.470000", "133939.810000", "133942.150000", "133944.490000", "133946.830000", "133949.170000", "133951.510000", "133953.850000", "133956.190000", "133958.530000", "134000.870000", "134003.210000", "134005.550000", "134007.890000", "134010.230000", "134012.570000", "134014.910000", "134017.250000", "134019.590000", "134021.930000", "134024.270000", "134026.610000", "134028.950000", "134031.290000"],
      "ContentTime": ["133628.764000", "133628.769000", "133628.771000", "133628.774000", "133628.782000", "133628.784000", "133628.787000", "133628.790000", "133628.792000", "133628.795000", "133628.798000", "133628.801000", "133628.803000", "133628.809000", "133628.812000", "133628.815000", "133628.819000", "133628.822000", "133628.825000", "133628.827000", "133628.836000", "133628.839000", "133628.841000", "133728.758000", "133728.762000", "133728.764000", "133728.767000", "133728.769000", "133728.772000", "133728.775000", "133728.777000", "133728.780000", "133728.783000", "133728.785000", "133728.788000", "133728.798000", "133728.801000", "133728.803000", "133728.806000", "133728.809000", "133728.811000", "133728.814000", "133728.817000", "133728.819000", "133728.822000", "133728.825000", "133728.827000", "133728.830000", "133728.833000", "133828.758000", "133828.761000", "133828.764000", "133828.767000", "133828.769000", "133828.772000", "133828.778000", "133828.781000", "133828.783000", "133828.786000", "133828.789000", "133828.792000", "133828.795000", "133828.798000", "133828.800000", "133828.803000", "133828.806000", "133828.809000", "133828.811000", "133828.814000", "133828.817000", "133828.819000", "133828.822000", "133828.824000", "133828.827000", "133828.830000", "133928.758000", "133928.766000", "133928.768000", "133928.771000", "133928.774000", "133928.777000", "133928.780000", "133928.782000", "133928.785000", "133928.788000", "133928.790000", "133928.793000", "133928.796000", "133928.799000", "133928.802000", "133928.804000", "133928.807000", "133928.810000", "133928.813000", "133928.816000", "133928.819000", "133928.821000", "133928.824000", "133928.827000", "133928.829000", "134028.758000", "134028.761000", "134028.764000", "134028.767000", "134028.769000", "134028.772000", "134028.775000", "134028.777000", "134028.780000", "134028.782000", "134028.785000", "134028.788000", "134028.790000", "134028.793000", "134028.796000", "134028.799000", "134028.801000", "134028.804000", "134028.807000", "134028.809000", "134028.812000", "134028.815000", "134028.818000", "134028.820000", "134028.823000", "134028.826000", "134033.258000", "134033.261000"],
      "InstanceCreationTime": ["133628.764000", "133628.769000", "133628.771000", "133628.774000", "133628.782000", "133628.784000", "133628.787000", "133628.790000", "133628.792000", "133628.795000", "133628.798000", "133628.801000", "133628.803000", "133628.809000", "133628.812000", "133628.815000", "133628.819000", "133628.822000", "133628.825000", "133628.827000", "133628.836000", "133628.839000", "133628.841000", "133728.758000", "133728.762000", "133728.764000", "133728.767000", "133728.769000", "133728.772000", "133728.775000", "133728.777000", "133728.780000", "133728.783000", "133728.785000", "133728.788000", "133728.798000", "133728.801000", "133728.803000", "133728.806000", "133728.809000", "133728.811000", "133728.814000", "133728.817000", "133728.819000", "133728.822000", "133728.825000", "133728.827000", "133728.830000", "133728.833000", "133828.758000", "133828.761000", "133828.764000", "133828.767000", "133828.769000", "133828.772000", "133828.778000", "133828.781000", "133828.783000", "133828.786000", "133828.789000", "133828.792000", "133828.795000", "133828.798000", "133828.800000", "133828.803000", "133828.806000", "133828.809000", "133828.811000", "133828.814000", "133828.817000", "133828.819000", "133828.822000", "133828.824000", "133828.827000", "133828.830000", "133928.758000", "133928.766000", "133928.768000", "133928.771000", "133928.774000", "133928.777000", "133928.780000", "133928.782000", "133928.785000", "133928.788000", "133928.790000", "133928.793000", "133928.796000", "133928.799000", "133928.802000", "133928.804000", "133928.807000", "133928.810000", "133928.813000", "133928.816000", "133928.819000", "133928.821000", "133928.824000", "133928.827000", "133928.829000", "134028.758000", "134028.761000", "134028.764000", "134028.767000", "134028.769000", "134028.772000", "134028.775000", "134028.777000", "134028.780000", "134028.782000", "134028.785000", "134028.788000", "134028.790000", "134028.793000", "134028.796000", "134028.799000", "134028.801000", "134028.804000", "134028.807000", "134028.809000", "134028.812000", "134028.815000", "134028.818000", "134028.820000", "134028.823000", "134028.826000", "134033.258000", "134033.261000"],
      "InstanceNumber": [1, 2, 3, 4, 5, 6, 7, 8, 9, 10, 11, 12, 13, 14, 15, 16, 17, 18, 19, 20, 21, 22, 23, 24, 25, 26, 27, 28, 29, 30, 31, 32, 33, 34, 35, 36, 37, 38, 39, 40, 41, 42, 43, 44, 45, 46, 47, 48, 49, 50, 51, 52, 53, 54, 55, 56, 57, 58, 59, 60, 61, 62, 63, 64, 65, 66, 67, 68, 69, 70, 71, 72, 73, 74, 75, 76, 77, 78, 79, 80, 81, 82, 83, 84, 85, 86, 87, 88, 89, 90, 91, 92, 93, 94, 95, 96, 97, 98, 99, 100, 101, 102, 103, 104, 105, 106, 107, 108, 109, 110, 111, 112, 113, 114, 115, 116, 117, 118, 119, 120, 121, 122, 123, 124, 125, 126, 127, 128],
      "LargestImagePixelValue": [2680, 2367, 2638, 2975, 3215, 2417, 2534, 3045, 2731, 2396, 2259, 2716, 2619, 2913, 2934, 2459, 2571, 2279, 2967, 2463, 2665, 2239, 2364, 3162, 3248, 2519, 2782, 2514, 2908, 2536, 2559, 2927, 2588, 2989, 2103, 2836, 3045, 2480, 2440, 2809, 2913, 2556, 2872, 2518, 2612, 2596, 2340, 2742, 2548, 2723, 2506, 2917, 2759, 2855, 2543, 2526, 2476, 2456, 1889, 2869, 2684, 2836, 2500, 2488, 2693, 2926, 2610, 2656, 2025, 1750, 2813, 2193, 2593, 1973, 2919, 2042, 2145, 2837, 2930, 2449, 2460, 2701, 2119, 2337, 2759, 2374, 2500, 3199, 1736, 2267, 2764, 2702, 2123, 1763, 2912, 2952, 3112, 1627, 2532, 2403, 2462, 2529, 2904, 2803, 2388, 2642, 2422, 2646, 2244, 1926, 2634, 3145, 2901, 2364, 2611, 2409, 2408, 2388, 2653, 3204, 2863, 2558, 1749, 2583, 3274, 2210, 2346, 2464],
      "WindowCenter": [762.0, 758.0, 758.0, 759.0, 758.0, 757.0, 757.0, 757.0, 758.0, 758.0, 758.0, 758.0, 757.0, 756.0, 755.0, 756.0, 756.0, 755.0, 756.0, 757.0, 758.0, 762.0, 759.0, 757.0, 754.0, 753.0, 756.0, 758.0, 756.0, 758.0, 756.0, 757.0, 758.0, 758.0, 757.0, 760.0, 757.0, 756.0, 755.0, 757.0, 757.0, 758.0, 757.0, 757.0, 756.0, 758.0, 757.0, 758.0, 758.0, 758.0, 759.0, 762.0, 757.0, 758.0, 757.0, 759.0, 754.0, 755.0, 753.0, 754.0, 751.0, 757.0, 757.0, 756.0, 758.0, 759.0, 758.0, 760.0, 758.0, 756.0, 758.0, 758.0, 756.0, 756.0, 752.0, 758.0, 758.0, 759.0, 759.0, 762.0, 763.0, 764.0, 762.0, 765.0, 765.0, 763.0, 762.0, 761.0, 763.0, 760.0, 762.0, 758.0, 757.0, 759.0, 761.0, 762.0, 758.0, 759.0, 763.0, 763.0, 762.0, 765.0, 763.0, 763.0, 762.0, 765.0, 763.0, 762.0, 762.0, 762.0, 765.0, 762.0, 762.0, 763.0, 762.0, 765.0, 764.0, 764.0, 761.0, 762.0, 760.0, 760.0, 761.0, 762.0, 760.0, 760.0, 762.0, 763.0],
      "WindowWidth": [1609.0, 1600.0, 1600.0, 1601.0, 1600.0, 1596.0, 1596.0, 1597.0, 1599.0, 1599.0, 1601.0, 1598.0, 1596.0, 1595.0, 1592.0, 1593.0, 1595.0, 1591.0, 1595.0, 1596.0, 1598.0, 1608.0, 1602.0, 1597.0, 1588.0, 1587.0, 1594.0, 1598.0, 1595.0, 1599.0, 1594.0, 1596.0, 1599.0, 1599.0, 1596.0, 1603.0, 1595.0, 1595.0, 1591.0, 1596.0, 1597.0, 1600.0, 1596.0, 1595.0, 1592.0, 1600.0, 1597.0, 1600.0, 1598.0, 1600.0, 1601.0, 1609.0, 1596.0, 1600.0, 1598.0, 1599.0, 1591.0, 1594.0, 1588.0, 1587.0, 1580.0, 1598.0, 1594.0, 1594.0, 1601.0, 1599.0, 1598.0, 1603.0, 1598.0, 1595.0, 1602.0, 1597.0, 1592.0, 1595.0, 1588.0, 1598.0, 1598.0, 1602.0, 1601.0, 1609.0, 1613.0, 1613.0, 1611.0, 1618.0, 1618.0, 1613.0, 1611.0, 1610.0, 1610.0, 1606.0, 1609.0, 1602.0, 1598.0, 1601.0, 1608.0, 1608.0, 1598.0, 1601.0, 1613.0, 1610.0, 1607.0, 1618.0, 1613.0, 1613.0, 1609.0, 1616.0, 1612.0, 1611.0, 1611.0, 1612.0, 1616.0, 1608.0, 1608.0, 1612.0, 1609.0, 1617.0, 1614.0, 1614.0, 1609.0, 1610.0, 1604.0, 1605.0, 1605.0, 1610.0, 1605.0, 1606.0, 1610.0, 1613.0]
    },
    "slices": {}
  }
}