{
  "AcquisitionMatrixPE": 64,
  "AcquisitionNumber": 1,
  "AcquisitionTime": "13:41:40.807500",
  "BandwidthPerPixelPhaseEncode": 24.038,
  "BaseResolution": 64,
  "BodyPartExamined": "HEAD",
  "ConsistencyInfo": "N4_VD13A_LATEST_20120616",
  "ConversionSoftware": "dcm2niix",
  "ConversionSoftwareVersion": "v1.0.20181125  GCC6.3.0",
  "DerivedVendorReportedEchoSpacing": 0.000650012,
  "DeviceSerialNumber": "45250",
  "DwellTime": 4.6e-06,
  "EchoTime": 0.033,
  "EchoTrainLength": 64,
  "EffectiveEchoSpacing": 0.000650012,
  "FlipAngle": 90,
  "ImageOrientationPatientDICOM": [0.999376, 0.0295591, -0.0193539, -0.0331527, 0.973925, -0.224434],
  "ImageType": [
    "ORIGINAL",
    "PRIMARY",
    "M",
    "ND",
    "NORM",
    "MOSAIC"
],
  "ImagingFrequency": 123.215,
  "InPlanePhaseEncodingDirectionDICOM": "COL",
  "InstitutionAddress": "Kopernikusstr._26_Graz_Graz_AT_8010",
  "InstitutionName": "KFU",
  "InstitutionalDepartmentName": "Department",
  "MRAcquisitionType": "2D",
  "MagneticFieldStrength": 3,
  "Manufacturer": "Siemens",
  "ManufacturersModelName": "Skyra",
  "Modality": "MR",
  "PartialFourier": 1,
  "PatientPosition": "HFS",
  "PercentPhaseFOV": 100,
  "PhaseEncodingDirection": "j-",
  "PhaseEncodingSteps": 64,
  "PhaseResolution": 1,
  "PixelBandwidth": 1700,
  "ProcedureStepDescription": "KFU_Entw-Psy",
  "ProtocolName": "fMRI_3",
  "PulseSequenceDetails": "%SiemensSeq%_ep2d_pace",
  "ReceiveCoilActiveElements": "HE1-4",
  "ReceiveCoilName": "HeadNeck_20",
  "ReconMatrixPE": 64,
  "RepetitionTime": 2.34,
  "SAR": 0.176752,
  "ScanOptions": "FS",
  "ScanningSequence": "EP",
  "SequenceName": "_epfid2d1_64",
  "SequenceVariant": "SK",
  "SeriesDescription": "fMRI_3",
  "SeriesNumber": 8,
  "ShimSetting": [-1586, -3700, -4300, 564, 553, 44, 78, -353],
  "SliceThickness": 3,
  "SliceTiming": [2.25, 2.1825, 2.115, 2.045, 1.9775, 1.91, 1.84, 1.7725, 1.705, 1.6375, 1.5675, 1.5, 1.4325, 1.3625, 1.295, 1.2275, 1.1575, 1.09, 1.0225, 0.955, 0.885, 0.8175, 0.75, 0.68, 0.6125, 0.545, 0.4775, 0.4075, 0.34, 0.2725, 0.2025, 0.135, 0.0675, 0],
  "SoftwareVersions": "syngo_MR_D13",
  "SpacingBetweenSlices": 3.3,
  "StationName": "FBMTMR1",
  "TaskName": "read",
  "TotalReadoutTime": 0.0409508,
  "TxRefAmp": 328.231,
  "dcmmeta_affine": [
    [-2.998126983642578, -0.09945819526910782, -0.04030996188521385, 101.08555603027344],
    [-0.08867734670639038, 2.9217755794525146, -0.7422873377799988, -101.44882202148438],
    [-0.05806157737970352, 0.6733021140098572, 3.2151803970336914, -36.416175842285156],
    [0.0, 0.0, 0.0, 1.0]
],
  "dcmmeta_reorient_transform": [
    [0.0, -1.0, 0.0, 63.0],
    [1.0, 0.0, 0.0, 0.0],
    [0.0, 0.0, 1.0, 0.0],
    [0.0, 0.0, 0.0, 1.0]
],
  "dcmmeta_shape": [64, 64, 34, 128],
  "dcmmeta_slice_dim": 2,
  "dcmmeta_version": 0.6,
  "global": {
    "const": {
      "AcquisitionMatrix": [64, 0, 0, 64],
      "AngioFlag": "N",
      "BitsAllocated": 16,
      "BitsStored": 12,
      "BodyPartExamined": "HEAD",
      "Columns": 384,
      "EchoNumbers": 1,
      "EchoTime": 33.0,
      "EchoTrainLength": 64,
      "FlipAngle": 90.0,
      "HighBit": 11,
      "ImageOrientationPatient": [0.99937564849241, 0.02955911569083, -0.0193538595623, -0.0331527309231, 0.9739251814077, -0.2244340380877],
      "ImagePositionPatient": [-558.60668832738, -564.29550264462, 123.02004796423],
      "ImageType": [
        "ORIGINAL",
        "PRIMARY",
        "M",
        "ND",
        "NORM",
        "MOSAIC"
],
      "ImagedNucleus": "1H",
      "ImagingFrequency": 123.214503,
      "InPlanePhaseEncodingDirection": "COL",
      "MRAcquisitionType": "2D",
      "MagneticFieldStrength": 3.0,
      "Manufacturer": "SIEMENS",
      "ManufacturerModelName": "Skyra",
      "Modality": "MR",
      "NumberOfAverages": 1.0,
      "NumberOfPhaseEncodingSteps": 64,
      "PercentPhaseFieldOfView": 100.0,
      "PercentSampling": 100.0,
      "PerformedProcedureStepStartTime": "132400.594000",
      "PhotometricInterpretation": "MONOCHROME2",
      "PixelBandwidth": 1700.0,
      "PixelRepresentation": 0,
      "PixelSpacing": [3.0, 3.0],
      "ProtocolName": "fMRI_3",
      "RepetitionTime": 2340.0,
      "Rows": 384,
      "SAR": 0.17675195905266,
      "SamplesPerPixel": 1,
      "ScanOptions": "FS",
      "ScanningSequence": "EP",
      "SequenceName": "*epfid2d1_64",
      "SequenceVariant": "SK",
      "SeriesDescription": "fMRI_3",
      "SeriesNumber": 8,
      "SeriesTime": "134239.923000",
      "SliceLocation": -13.895502497917,
      "SliceThickness": 3.0,
      "SmallestImagePixelValue": 0,
      "SoftwareVersions": "syngo MR D13",
      "SpacingBetweenSlices": 3.3000000668198,
      "SpecificCharacterSet": "ISO_IR 100",
      "StudyID": "1",
      "StudyTime": "132400.543000",
      "TransmitCoilName": "Body",
      "VariableFlipAngleFlag": "N",
      "WindowCenterWidthExplanation": "Algo1",
      "dBdt": 0.0},
    "slices": {}
  },
  "time": {
    "samples": {
      "AcquisitionNumber": [1, 2, 3, 4, 5, 6, 7, 8, 9, 10, 11, 12, 13, 14, 15, 16, 17, 18, 19, 20, 21, 22, 23, 24, 25, 26, 27, 28, 29, 30, 31, 32, 33, 34, 35, 36, 37, 38, 39, 40, 41, 42, 43, 44, 45, 46, 47, 48, 49, 50, 51, 52, 53, 54, 55, 56, 57, 58, 59, 60, 61, 62, 63, 64, 65, 66, 67, 68, 69, 70, 71, 72, 73, 74, 75, 76, 77, 78, 79, 80, 81, 82, 83, 84, 85, 86, 87, 88, 89, 90, 91, 92, 93, 94, 95, 96, 97, 98, 99, 100, 101, 102, 103, 104, 105, 106, 107, 108, 109, 110, 111, 112, 113, 114, 115, 116, 117, 118, 119, 120, 121, 122, 123, 124, 125, 126, 127, 128],
      "AcquisitionTime": ["134140.807500", "134143.147500", "134145.487500", "134147.827500", "134150.167500", "134152.507500", "134154.847500", "134157.187500", "134159.527500", "134201.867500", "134204.207500", "134206.547500", "134208.887500", "134211.227500", "134213.567500", "134215.907500", "134218.247500", "134220.587500", "134222.927500", "134225.267500", "134227.607500", "134229.947500", "134232.287500", "134234.627500", "134236.967500", "134239.307500", "134241.647500", "134243.987500", "134246.327500", "134248.667500", "134251.007500", "134253.347500", "134255.687500", "134258.027500", "134300.367500", "134302.707500", "134305.047500", "134307.387500", "134309.727500", "134312.067500", "134314.407500", "134316.747500", "134319.087500", "134321.427500", "134323.767500", "134326.107500", "134328.447500", "134330.787500", "134333.127500", "134335.467500", "134337.807500", "134340.147500", "134342.487500", "134344.827500", "134347.167500", "134349.507500", "134351.847500", "134354.187500", "134356.527500", "134358.867500", "134401.207500", "134403.547500", "134405.887500", "134408.227500", "134410.567500", "134412.907500", "134415.247500", "134417.587500", "134419.927500", "134422.267500", "134424.607500", "134426.947500", "134429.287500", "134431.627500", "134433.967500", "134436.307500", "134438.647500", "134440.987500", "134443.327500", "134445.667500", "134448.007500", "134450.347500", "134452.687500", "134455.027500", "134457.367500", "134459.707500", "134502.047500", "134504.387500", "134506.727500", "134509.067500", "134511.407500", "134513.747500", "134516.087500", "134518.427500", "134520.767500", "134523.107500", "134525.447500", "134527.787500", "134530.127500", "134532.467500", "134534.807500", "134537.147500", "134539.487500", "134541.827500", "134544.167500", "134546.507500", "134548.847500", "134551.187500", "134553.527500", "134555.867500", "134558.207500", "134600.547500", "134602.887500", "134605.227500", "134607.567500", "134609.907500", "134612.247500", "134614.587500", "134616.927500", "134619.267500", "134621.607500", "134623.947500", "134626.287500", "134628.627500", "134630.967500", "134633.307500", "134635.647500", "134637.987500"],
      "ContentTime": ["134239.928000", "134239.932000", "134239.934000", "134239.937000", "134239.940000", "134239.943000", "134239.951000", "134239.954000", "134239.956000", "134239.959000", "134239.962000", "134239.965000", "134239.968000", "134239.971000", "134239.973000", "134239.976000", "134239.979000", "134239.981000", "134239.984000", "134240.000000", "134240.007000", "134240.010000", "134240.013000", "134240.015000", "134240.018000", "134240.021000", "134339.920000", "134339.924000", "134339.926000", "134339.929000", "134339.932000", "134339.935000", "134339.938000", "134339.941000", "134339.943000", "134339.946000", "134339.949000", "134339.951000", "134339.954000", "134339.957000", "134339.960000", "134339.962000", "134339.965000", "134339.968000", "134339.970000", "134339.973000", "134339.976000", "134339.978000", "134339.981000", "134339.984000", "134339.990000", "134439.922000", "134439.925000", "134439.928000", "134439.931000", "134439.934000", "134439.937000", "134439.939000", "134439.942000", "134439.944000", "134439.947000", "134439.950000", "134439.953000", "134439.955000", "134439.958000", "134439.961000", "134439.964000", "134439.967000", "134439.970000", "134439.973000", "134439.976000", "134439.979000", "134439.981000", "134439.984000", "134439.987000", "134439.990000", "134439.992000", "134539.922000", "134539.925000", "134539.928000", "134539.931000", "134539.934000", "134539.937000", "134539.940000", "134539.943000", "134539.945000", "134539.948000", "134539.951000", "134539.954000", "134539.957000", "134539.960000", "134539.963000", "134539.965000", "134539.968000", "134539.971000", "134539.977000", "134539.980000", "134539.982000", "134539.985000", "134539.988000", "134539.991000", "134539.994000", "134539.997000", "134638.981000", "134638.985000", "134638.989000", "134638.993000", "134638.996000", "134638.998000", "134639.004000", "134639.009000", "134639.014000", "134639.018000", "134639.021000", "134639.024000", "134639.027000", "134639.030000", "134639.033000", "134639.036000", "134639.039000", "134639.041000", "134639.045000", "134639.049000", "134639.053000", "134639.056000", "134639.059000", "134639.063000", "134639.066000"],
      "InstanceCreationTime": ["134239.928000", "134239.932000", "134239.934000", "134239.937000", "134239.940000", "134239.943000", "134239.951000", "134239.954000", "134239.956000", "134239.959000", "134239.962000", "134239.965000", "134239.968000", "134239.971000", "134239.973000", "134239.976000", "134239.979000", "134239.981000", "134239.984000", "134240.000000", "134240.007000", "134240.010000", "134240.013000", "134240.015000", "134240.018000", "134240.021000", "134339.920000", "134339.924000", "134339.926000", "134339.929000", "134339.932000", "134339.935000", "134339.938000", "134339.941000", "134339.943000", "134339.946000", "134339.949000", "134339.951000", "134339.954000", "134339.957000", "134339.960000", "134339.962000", "134339.965000", "134339.968000", "134339.970000", "134339.973000", "134339.976000", "134339.978000", "134339.981000", "134339.984000", "134339.990000", "134439.922000", "134439.925000", "134439.928000", "134439.931000", "134439.934000", "134439.937000", "134439.939000", "134439.942000", "134439.944000", "134439.947000", "134439.950000", "134439.953000", "134439.955000", "134439.958000", "134439.961000", "134439.964000", "134439.967000", "134439.970000", "134439.973000", "134439.976000", "134439.979000", "134439.981000", "134439.984000", "134439.987000", "134439.990000", "134439.992000", "134539.922000", "134539.925000", "134539.928000", "134539.931000", "134539.934000", "134539.937000", "134539.940000", "134539.943000", "134539.945000", "134539.948000", "134539.951000", "134539.954000", "134539.957000", "134539.960000", "134539.963000", "134539.965000", "134539.968000", "134539.971000", "134539.977000", "134539.980000", "134539.982000", "134539.985000", "134539.988000", "134539.991000", "134539.994000", "134539.997000", "134638.981000", "134638.985000", "134638.989000", "134638.993000", "134638.996000", "134638.998000", "134639.004000", "134639.009000", "134639.014000", "134639.018000", "134639.021000", "134639.024000", "134639.027000", "134639.030000", "134639.033000", "134639.036000", "134639.039000", "134639.041000", "134639.045000", "134639.049000", "134639.053000", "134639.056000", "134639.059000", "134639.063000", "134639.066000"],
      "InstanceNumber": [1, 2, 3, 4, 5, 6, 7, 8, 9, 10, 11, 12, 13, 14, 15, 16, 17, 18, 19, 20, 21, 22, 23, 24, 25, 26, 27, 28, 29, 30, 31, 32, 33, 34, 35, 36, 37, 38, 39, 40, 41, 42, 43, 44, 45, 46, 47, 48, 49, 50, 51, 52, 53, 54, 55, 56, 57, 58, 59, 60, 61, 62, 63, 64, 65, 66, 67, 68, 69, 70, 71, 72, 73, 74, 75, 76, 77, 78, 79, 80, 81, 82, 83, 84, 85, 86, 87, 88, 89, 90, 91, 92, 93, 94, 95, 96, 97, 98, 99, 100, 101, 102, 103, 104, 105, 106, 107, 108, 109, 110, 111, 112, 113, 114, 115, 116, 117, 118, 119, 120, 121, 122, 123, 124, 125, 126, 127, 128],
      "LargestImagePixelValue": [2562, 2678, 2708, 2733, 2629, 2385, 2533, 2439, 2103, 2169, 2423, 2368, 2540, 2379, 2107, 2542, 2627, 2231, 2068, 1671, 2469, 2619, 1984, 1937, 1965, 2295, 2088, 2332, 2324, 2623, 2467, 2095, 2372, 2151, 2526, 2711, 2774, 2343, 2330, 2226, 2181, 2329, 1939, 2463, 2087, 1756, 2820, 2160, 2358, 2412, 2264, 2010, 2134, 1995, 2126, 1810, 2213, 2507, 2288, 2474, 2607, 2927, 1852, 1768, 2660, 3109, 2642, 2281, 2202, 1973, 2260, 2202, 1950, 1899, 2096, 2283, 2304, 2058, 2203, 2120, 2750, 2389, 2364, 2284, 2795, 2610, 2377, 1990, 2430, 2470, 2283, 2329, 2123, 2266, 2548, 2238, 2804, 2860, 2745, 2384, 2409, 2865, 2151, 2516, 2548, 2135, 2398, 1886, 2486, 2620, 2766, 2347, 2592, 2830, 2068, 2076, 2448, 2468, 2335, 2170, 2543, 2493, 2609, 2843, 2638, 2237, 2509, 2666],
      "WindowCenter": [759.0, 758.0, 757.0, 757.0, 759.0, 759.0, 756.0, 754.0, 752.0, 754.0, 755.0, 755.0, 756.0, 754.0, 755.0, 758.0, 754.0, 753.0, 755.0, 757.0, 757.0, 757.0, 753.0, 756.0, 757.0, 758.0, 755.0, 759.0, 758.0, 758.0, 755.0, 755.0, 755.0, 760.0, 757.0, 756.0, 755.0, 757.0, 755.0, 756.0, 756.0, 757.0, 755.0, 759.0, 757.0, 759.0, 758.0, 758.0, 754.0, 755.0, 756.0, 757.0, 758.0, 759.0, 758.0, 760.0, 760.0, 762.0, 762.0, 759.0, 756.0, 759.0, 755.0, 759.0, 761.0, 759.0, 753.0, 750.0, 748.0, 752.0, 756.0, 754.0, 754.0, 759.0, 757.0, 760.0, 758.0, 760.0, 761.0, 763.0, 761.0, 761.0, 761.0, 764.0, 762.0, 762.0, 759.0, 759.0, 758.0, 761.0, 758.0, 760.0, 762.0, 762.0, 761.0, 761.0, 761.0, 762.0, 760.0, 761.0, 762.0, 762.0, 758.0, 761.0, 759.0, 763.0, 761.0, 764.0, 760.0, 762.0, 760.0, 760.0, 761.0, 762.0, 760.0, 760.0, 762.0, 763.0, 760.0, 762.0, 761.0, 761.0, 761.0, 763.0, 761.0, 760.0, 763.0, 764.0],
      "WindowWidth": [1600.0, 1597.0, 1595.0, 1594.0, 1600.0, 1601.0, 1593.0, 1587.0, 1582.0, 1587.0, 1589.0, 1590.0, 1591.0, 1588.0, 1592.0, 1597.0, 1587.0, 1585.0, 1589.0, 1593.0, 1595.0, 1596.0, 1582.0, 1591.0, 1594.0, 1597.0, 1590.0, 1599.0, 1596.0, 1598.0, 1592.0, 1589.0, 1590.0, 1602.0, 1594.0, 1592.0, 1590.0, 1594.0, 1590.0, 1591.0, 1593.0, 1596.0, 1591.0, 1601.0, 1593.0, 1600.0, 1597.0, 1597.0, 1587.0, 1590.0, 1592.0, 1593.0, 1598.0, 1598.0, 1597.0, 1602.0, 1601.0, 1607.0, 1606.0, 1598.0, 1594.0, 1601.0, 1589.0, 1599.0, 1604.0, 1602.0, 1586.0, 1577.0, 1572.0, 1584.0, 1592.0, 1586.0, 1588.0, 1599.0, 1595.0, 1602.0, 1597.0, 1601.0, 1605.0, 1609.0, 1606.0, 1606.0, 1604.0, 1611.0, 1609.0, 1607.0, 1600.0, 1600.0, 1599.0, 1603.0, 1597.0, 1605.0, 1607.0, 1608.0, 1607.0, 1605.0, 1605.0, 1609.0, 1603.0, 1604.0, 1608.0, 1608.0, 1599.0, 1606.0, 1604.0, 1607.0, 1603.0, 1611.0, 1604.0, 1607.0, 1603.0, 1601.0, 1606.0, 1607.0, 1603.0, 1602.0, 1609.0, 1608.0, 1602.0, 1607.0, 1605.0, 1606.0, 1604.0, 1610.0, 1607.0, 1603.0, 1610.0, 1612.0]
    },
    "slices": {}
  }
}