{
  "AcquisitionMatrixPE": 64,
  "AcquisitionNumber": 1,
  "AcquisitionTime": "10:02:43.310000",
  "BandwidthPerPixelPhaseEncode": 24.038,
  "BaseResolution": 64,
  "BodyPartExamined": "HEAD",
  "ConsistencyInfo": "N4_VD13A_LATEST_20120616",
  "ConversionSoftware": "dcm2niix",
  "ConversionSoftwareVersion": "v1.0.20181125  GCC6.3.0",
  "DerivedVendorReportedEchoSpacing": 0.000650012,
  "DeviceSerialNumber": "45250",
  "DwellTime": 4.6e-06,
  "EchoTime": 0.033,
  "EchoTrainLength": 64,
  "EffectiveEchoSpacing": 0.000650012,
  "FlipAngle": 90,
  "ImageOrientationPatientDICOM": [0.995836, -0.0532259, -0.0740178, 0.0399969, 0.984643, -0.169934],
  "ImageType": [
    "ORIGINAL",
    "PRIMARY",
    "M",
    "ND",
    "NORM",
    "MOSAIC"
],
  "ImagingFrequency": 123.214,
  "InPlanePhaseEncodingDirectionDICOM": "COL",
  "InstitutionAddress": "Kopernikusstr._26_Graz_Graz_AT_8010",
  "InstitutionName": "KFU",
  "InstitutionalDepartmentName": "Department",
  "MRAcquisitionType": "2D",
  "MagneticFieldStrength": 3,
  "Manufacturer": "Siemens",
  "ManufacturersModelName": "Skyra",
  "Modality": "MR",
  "PartialFourier": 1,
  "PatientPosition": "HFS",
  "PercentPhaseFOV": 100,
  "PhaseEncodingDirection": "j-",
  "PhaseEncodingSteps": 64,
  "PhaseResolution": 1,
  "PixelBandwidth": 1700,
  "ProcedureStepDescription": "KFU_Entw-Psy",
  "ProtocolName": "fMRI_1",
  "PulseSequenceDetails": "%SiemensSeq%_ep2d_pace",
  "ReceiveCoilActiveElements": "HE1-4",
  "ReceiveCoilName": "HeadNeck_20",
  "ReconMatrixPE": 64,
  "RepetitionTime": 2.34,
  "SAR": 0.206568,
  "ScanOptions": "FS",
  "ScanningSequence": "EP",
  "SequenceName": "_epfid2d1_64",
  "SequenceVariant": "SK",
  "SeriesDescription": "fMRI_1",
  "SeriesNumber": 2,
  "ShimSetting": [-1636, -3690, -4372, 406, 426, -62, 157, -203],
  "SliceThickness": 3,
  "SliceTiming": [2.2525, 2.185, 2.115, 2.0475, 1.98, 1.9125, 1.8425, 1.775, 1.7075, 1.6375, 1.57, 1.5025, 1.435, 1.365, 1.2975, 1.23, 1.16, 1.0925, 1.025, 0.9575, 0.8875, 0.82, 0.7525, 0.6825, 0.615, 0.5475, 0.4775, 0.41, 0.3425, 0.275, 0.205, 0.1375, 0.07, 0],
  "SoftwareVersions": "syngo_MR_D13",
  "SpacingBetweenSlices": 3.3,
  "StationName": "FBMTMR1",
  "TaskName": "read",
  "TotalReadoutTime": 0.0409508,
  "TxRefAmp": 393.793,
  "dcmmeta_affine": [
    [-2.987506628036499, 0.1199907660484314, -0.2703559100627899, 89.89525604248047],
    [0.1596776247024536, 2.953930139541626, -0.5486778020858765, -111.77977752685547],
    [-0.2220533788204193, 0.509802520275116, 3.242816925048828, -16.319683074951172],
    [0.0, 0.0, 0.0, 1.0]
],
  "dcmmeta_reorient_transform": [
    [0.0, -1.0, 0.0, 63.0],
    [1.0, 0.0, 0.0, 0.0],
    [0.0, 0.0, 1.0, 0.0],
    [0.0, 0.0, 0.0, 1.0]
],
  "dcmmeta_shape": [64, 64, 34, 126],
  "dcmmeta_slice_dim": 2,
  "dcmmeta_version": 0.6,
  "global": {
    "const": {
      "AcquisitionMatrix": [64, 0, 0, 64],
      "AngioFlag": "N",
      "BitsAllocated": 16,
      "BitsStored": 12,
      "BodyPartExamined": "HEAD",
      "Columns": 384,
      "EchoNumbers": 1,
      "EchoTime": 33.0,
      "EchoTrainLength": 64,
      "FlipAngle": 90.0,
      "HighBit": 11,
      "ImageOrientationPatient": [0.99583551466559, -0.053225875304, -0.074017794677, 0.0399969213664, 0.98464340047512, -0.1699341642578],
      "ImagePositionPatient": [-594.65424376787, -521.39823743374, 132.89481497979],
      "ImageType": [
        "ORIGINAL",
        "PRIMARY",
        "M",
        "ND",
        "NORM",
        "MOSAIC"
],
      "ImagedNucleus": "1H",
      "ImagingFrequency": 123.214256,
      "InPlanePhaseEncodingDirection": "COL",
      "MRAcquisitionType": "2D",
      "MagneticFieldStrength": 3.0,
      "Manufacturer": "SIEMENS",
      "ManufacturerModelName": "Skyra",
      "Modality": "MR",
      "NumberOfAverages": 1.0,
      "NumberOfPhaseEncodingSteps": 64,
      "PercentPhaseFieldOfView": 100.0,
      "PercentSampling": 100.0,
      "PerformedProcedureStepStartTime": "100026.016000",
      "PhotometricInterpretation": "MONOCHROME2",
      "PixelBandwidth": 1700.0,
      "PixelRepresentation": 0,
      "PixelSpacing": [3.0, 3.0],
      "ProtocolName": "fMRI_1",
      "RepetitionTime": 2340.0,
      "Rows": 384,
      "SAR": 0.20656769138902,
      "SamplesPerPixel": 1,
      "ScanOptions": "FS",
      "ScanningSequence": "EP",
      "SequenceName": "*epfid2d1_64",
      "SequenceVariant": "SK",
      "SeriesDescription": "fMRI_1",
      "SeriesNumber": 2,
      "SeriesTime": "100339.708000",
      "SliceLocation": -4.8164763255575,
      "SliceThickness": 3.0,
      "SmallestImagePixelValue": 0,
      "SoftwareVersions": "syngo MR D13",
      "SpacingBetweenSlices": 3.300000074987,
      "SpecificCharacterSet": "ISO_IR 100",
      "StudyID": "1",
      "StudyTime": "100025.958000",
      "TransmitCoilName": "Body",
      "VariableFlipAngleFlag": "N",
      "WindowCenterWidthExplanation": "Algo1",
      "dBdt": 0.0},
    "slices": {}
  },
  "time": {
    "samples": {
      "AcquisitionNumber": [1, 2, 3, 4, 5, 6, 7, 8, 9, 10, 11, 12, 13, 14, 15, 16, 17, 18, 19, 20, 21, 22, 23, 24, 25, 26, 27, 28, 29, 30, 31, 32, 33, 34, 35, 36, 37, 38, 39, 40, 41, 42, 43, 44, 45, 46, 47, 48, 49, 50, 51, 52, 53, 54, 55, 56, 57, 58, 59, 60, 61, 62, 63, 64, 65, 66, 67, 68, 69, 70, 71, 72, 73, 74, 75, 76, 77, 78, 79, 80, 81, 82, 83, 84, 85, 86, 87, 88, 89, 90, 91, 92, 93, 94, 95, 96, 97, 98, 99, 100, 101, 102, 103, 104, 105, 106, 107, 108, 109, 110, 111, 112, 113, 114, 115, 116, 117, 118, 119, 120, 121, 122, 123, 124, 125, 126],
      "AcquisitionTime": ["100243.310000", "100245.650000", "100247.990000", "100250.330000", "100252.670000", "100255.010000", "100257.350000", "100259.690000", "100302.030000", "100304.370000", "100306.710000", "100309.050000", "100311.390000", "100313.730000", "100316.070000", "100318.410000", "100320.750000", "100323.090000", "100325.430000", "100327.770000", "100330.110000", "100332.450000", "100334.790000", "100337.130000", "100339.470000", "100341.810000", "100344.150000", "100346.490000", "100348.830000", "100351.170000", "100353.510000", "100355.850000", "100358.190000", "100400.530000", "100402.870000", "100405.210000", "100407.550000", "100409.890000", "100412.230000", "100414.570000", "100416.910000", "100419.250000", "100421.590000", "100423.930000", "100426.270000", "100428.610000", "100430.950000", "100433.290000", "100435.630000", "100437.970000", "100440.310000", "100442.650000", "100444.990000", "100447.330000", "100449.670000", "100452.010000", "100454.350000", "100456.690000", "100459.030000", "100501.370000", "100503.710000", "100506.050000", "100508.390000", "100510.730000", "100513.070000", "100515.410000", "100517.750000", "100520.090000", "100522.430000", "100524.770000", "100527.110000", "100529.450000", "100531.790000", "100534.130000", "100536.470000", "100538.810000", "100541.150000", "100543.490000", "100545.830000", "100548.170000", "100550.510000", "100552.850000", "100555.190000", "100557.530000", "100559.870000", "100602.210000", "100604.550000", "100606.890000", "100609.230000", "100611.570000", "100613.910000", "100616.250000", "100618.590000", "100620.930000", "100623.270000", "100625.610000", "100627.950000", "100630.290000", "100632.630000", "100634.970000", "100637.310000", "100639.650000", "100641.990000", "100644.330000", "100646.670000", "100649.010000", "100651.350000", "100653.690000", "100656.030000", "100658.370000", "100700.710000", "100703.050000", "100705.390000", "100707.730000", "100710.070000", "100712.410000", "100714.750000", "100717.090000", "100719.430000", "100721.770000", "100724.110000", "100726.450000", "100728.790000", "100731.130000", "100733.470000", "100735.810000"],
      "ContentTime": ["100339.713000", "100339.717000", "100339.720000", "100339.729000", "100339.732000", "100339.734000", "100339.737000", "100339.739000", "100339.742000", "100339.745000", "100339.747000", "100339.750000", "100339.753000", "100339.755000", "100339.758000", "100339.761000", "100339.763000", "100339.766000", "100339.768000", "100339.771000", "100339.774000", "100339.777000", "100339.779000", "100339.782000", "100439.706000", "100439.710000", "100439.712000", "100439.715000", "100439.717000", "100439.720000", "100439.723000", "100439.725000", "100439.728000", "100439.730000", "100439.733000", "100439.736000", "100439.738000", "100439.741000", "100439.743000", "100439.746000", "100439.749000", "100439.751000", "100439.754000", "100439.756000", "100439.759000", "100439.762000", "100439.764000", "100439.767000", "100439.770000", "100439.772000", "100539.707000", "100539.711000", "100539.714000", "100539.717000", "100539.719000", "100539.722000", "100539.725000", "100539.728000", "100539.731000", "100539.734000", "100539.737000", "100539.740000", "100539.749000", "100539.752000", "100539.754000", "100539.757000", "100539.760000", "100539.763000", "100539.766000", "100539.768000", "100539.771000", "100539.774000", "100539.776000", "100539.779000", "100539.781000", "100639.706000", "100639.709000", "100639.712000", "100639.715000", "100639.718000", "100639.720000", "100639.723000", "100639.726000", "100639.728000", "100639.731000", "100639.734000", "100639.736000", "100639.739000", "100639.741000", "100639.744000", "100639.747000", "100639.749000", "100639.752000", "100639.755000", "100639.757000", "100639.760000", "100639.763000", "100639.765000", "100639.768000", "100639.770000", "100639.773000", "100738.635000", "100738.638000", "100738.641000", "100738.643000", "100738.646000", "100738.653000", "100738.656000", "100738.659000", "100738.663000", "100738.666000", "100738.669000", "100738.672000", "100738.675000", "100738.678000", "100738.681000", "100738.684000", "100738.687000", "100738.690000", "100738.693000", "100738.696000", "100738.700000", "100738.704000", "100738.708000", "100738.712000", "100738.717000"],
      "InstanceCreationTime": ["100339.713000", "100339.717000", "100339.720000", "100339.729000", "100339.732000", "100339.734000", "100339.737000", "100339.739000", "100339.742000", "100339.745000", "100339.747000", "100339.750000", "100339.753000", "100339.755000", "100339.758000", "100339.761000", "100339.763000", "100339.766000", "100339.768000", "100339.771000", "100339.774000", "100339.777000", "100339.779000", "100339.782000", "100439.706000", "100439.710000", "100439.712000", "100439.715000", "100439.717000", "100439.720000", "100439.723000", "100439.725000", "100439.728000", "100439.730000", "100439.733000", "100439.736000", "100439.738000", "100439.741000", "100439.743000", "100439.746000", "100439.749000", "100439.751000", "100439.754000", "100439.756000", "100439.759000", "100439.762000", "100439.764000", "100439.767000", "100439.770000", "100439.772000", "100539.707000", "100539.711000", "100539.714000", "100539.717000", "100539.719000", "100539.722000", "100539.725000", "100539.728000", "100539.731000", "100539.734000", "100539.737000", "100539.740000", "100539.749000", "100539.752000", "100539.754000", "100539.757000", "100539.760000", "100539.763000", "100539.766000", "100539.768000", "100539.771000", "100539.774000", "100539.776000", "100539.779000", "100539.781000", "100639.706000", "100639.709000", "100639.712000", "100639.715000", "100639.718000", "100639.720000", "100639.723000", "100639.726000", "100639.728000", "100639.731000", "100639.734000", "100639.736000", "100639.739000", "100639.741000", "100639.744000", "100639.747000", "100639.749000", "100639.752000", "100639.755000", "100639.757000", "100639.760000", "100639.763000", "100639.765000", "100639.768000", "100639.770000", "100639.773000", "100738.635000", "100738.638000", "100738.641000", "100738.643000", "100738.646000", "100738.653000", "100738.656000", "100738.659000", "100738.663000", "100738.666000", "100738.669000", "100738.672000", "100738.675000", "100738.678000", "100738.681000", "100738.684000", "100738.687000", "100738.690000", "100738.693000", "100738.696000", "100738.700000", "100738.704000", "100738.708000", "100738.712000", "100738.717000"],
      "InstanceNumber": [1, 2, 3, 4, 5, 6, 7, 8, 9, 10, 11, 12, 13, 14, 15, 16, 17, 18, 19, 20, 21, 22, 23, 24, 25, 26, 27, 28, 29, 30, 31, 32, 33, 34, 35, 36, 37, 38, 39, 40, 41, 42, 43, 44, 45, 46, 47, 48, 49, 50, 51, 52, 53, 54, 55, 56, 57, 58, 59, 60, 61, 62, 63, 64, 65, 66, 67, 68, 69, 70, 71, 72, 73, 74, 75, 76, 77, 78, 79, 80, 81, 82, 83, 84, 85, 86, 87, 88, 89, 90, 91, 92, 93, 94, 95, 96, 97, 98, 99, 100, 101, 102, 103, 104, 105, 106, 107, 108, 109, 110, 111, 112, 113, 114, 115, 116, 117, 118, 119, 120, 121, 122, 123, 124, 125, 126],
      "LargestImagePixelValue": [2091, 2041, 2067, 2070, 2506, 2085, 2136, 1860, 1849, 1919, 1827, 2395, 2063, 1814, 1892, 2160, 2426, 2194, 2315, 1953, 2210, 2053, 2006, 2091, 1924, 2233, 1909, 1809, 1991, 1996, 2279, 1805, 2141, 1945, 2122, 2251, 2264, 2080, 2684, 1938, 2191, 2001, 1758, 2098, 1942, 2423, 1871, 2063, 2161, 2102, 1796, 1945, 1984, 2027, 2517, 2022, 2014, 1970, 2188, 1794, 1870, 3005, 2055, 1916, 1952, 1881, 2091, 1918, 1992, 1802, 1882, 1926, 2006, 1884, 1836, 1950, 1966, 2823, 2334, 2018, 1892, 2266, 2000, 2028, 1944, 2184, 1975, 2425, 2076, 2386, 2236, 2092, 2670, 2104, 2260, 1974, 1839, 2211, 2221, 2304, 1944, 2280, 1849, 1926, 2328, 1913, 2120, 2596, 2184, 1991, 1880, 2001, 1968, 2937, 1867, 1760, 2644, 2348, 2855, 1831, 1894, 1813, 1869, 1975, 2094, 1913],
      "WindowCenter": [780.0, 778.0, 778.0, 779.0, 782.0, 779.0, 779.0, 780.0, 783.0, 779.0, 779.0, 783.0, 781.0, 777.0, 777.0, 778.0, 778.0, 777.0, 778.0, 778.0, 777.0, 779.0, 781.0, 779.0, 777.0, 777.0, 775.0, 777.0, 776.0, 781.0, 779.0, 781.0, 776.0, 776.0, 774.0, 776.0, 780.0, 778.0, 778.0, 776.0, 775.0, 776.0, 777.0, 778.0, 779.0, 778.0, 780.0, 778.0, 778.0, 779.0, 775.0, 779.0, 778.0, 779.0, 780.0, 779.0, 779.0, 777.0, 781.0, 778.0, 778.0, 779.0, 781.0, 779.0, 777.0, 779.0, 778.0, 777.0, 779.0, 778.0, 778.0, 780.0, 777.0, 780.0, 777.0, 779.0, 776.0, 779.0, 779.0, 782.0, 778.0, 780.0, 780.0, 782.0, 782.0, 785.0, 781.0, 783.0, 778.0, 779.0, 780.0, 778.0, 780.0, 778.0, 775.0, 778.0, 778.0, 778.0, 780.0, 781.0, 777.0, 778.0, 777.0, 779.0, 779.0, 782.0, 781.0, 785.0, 781.0, 787.0, 781.0, 780.0, 782.0, 783.0, 783.0, 779.0, 781.0, 784.0, 779.0, 786.0, 779.0, 779.0, 778.0, 780.0, 780.0, 780.0],
      "WindowWidth": [1666.0, 1663.0, 1662.0, 1664.0, 1673.0, 1664.0, 1663.0, 1669.0, 1676.0, 1667.0, 1666.0, 1674.0, 1669.0, 1659.0, 1659.0, 1661.0, 1661.0, 1659.0, 1662.0, 1663.0, 1658.0, 1664.0, 1667.0, 1662.0, 1659.0, 1660.0, 1653.0, 1659.0, 1658.0, 1668.0, 1661.0, 1671.0, 1658.0, 1657.0, 1650.0, 1657.0, 1665.0, 1659.0, 1663.0, 1657.0, 1655.0, 1658.0, 1659.0, 1663.0, 1664.0, 1665.0, 1665.0, 1661.0, 1662.0, 1666.0, 1654.0, 1663.0, 1661.0, 1664.0, 1666.0, 1667.0, 1663.0, 1659.0, 1669.0, 1662.0, 1663.0, 1667.0, 1666.0, 1664.0, 1664.0, 1665.0, 1663.0, 1660.0, 1665.0, 1661.0, 1663.0, 1665.0, 1659.0, 1667.0, 1662.0, 1663.0, 1655.0, 1667.0, 1662.0, 1673.0, 1660.0, 1666.0, 1667.0, 1672.0, 1672.0, 1679.0, 1668.0, 1675.0, 1661.0, 1667.0, 1665.0, 1660.0, 1666.0, 1660.0, 1654.0, 1660.0, 1661.0, 1663.0, 1665.0, 1668.0, 1659.0, 1665.0, 1657.0, 1662.0, 1664.0, 1671.0, 1668.0, 1679.0, 1667.0, 1687.0, 1672.0, 1668.0, 1670.0, 1677.0, 1676.0, 1665.0, 1674.0, 1673.0, 1662.0, 1683.0, 1666.0, 1664.0, 1663.0, 1667.0, 1666.0, 1665.0]
    },
    "slices": {}
  }
}