{
  "AcquisitionMatrixPE": 64,
  "AcquisitionNumber": 1,
  "AcquisitionTime": "13:53:51.580000",
  "BandwidthPerPixelPhaseEncode": 24.038,
  "BaseResolution": 64,
  "BodyPartExamined": "HEAD",
  "ConsistencyInfo": "N4_VD13A_LATEST_20120616",
  "ConversionSoftware": "dcm2niix",
  "ConversionSoftwareVersion": "v1.0.20181125  GCC6.3.0",
  "DerivedVendorReportedEchoSpacing": 0.000650012,
  "DeviceSerialNumber": "45250",
  "DwellTime": 4.6e-06,
  "EchoTime": 0.033,
  "EchoTrainLength": 64,
  "EffectiveEchoSpacing": 0.000650012,
  "FlipAngle": 90,
  "ImageOrientationPatientDICOM": [0.998694, -0.0349107, -0.0373022, 0.0296405, 0.990602, -0.133528],
  "ImageType": [
    "ORIGINAL",
    "PRIMARY",
    "M",
    "ND",
    "NORM",
    "MOSAIC"
],
  "ImagingFrequency": 123.214,
  "InPlanePhaseEncodingDirectionDICOM": "COL",
  "InstitutionAddress": "Kopernikusstr._26_Graz_Graz_AT_8010",
  "InstitutionName": "KFU",
  "InstitutionalDepartmentName": "Department",
  "MRAcquisitionType": "2D",
  "MagneticFieldStrength": 3,
  "Manufacturer": "Siemens",
  "ManufacturersModelName": "Skyra",
  "Modality": "MR",
  "PartialFourier": 1,
  "PatientPosition": "HFS",
  "PercentPhaseFOV": 100,
  "PhaseEncodingDirection": "j-",
  "PhaseEncodingSteps": 64,
  "PhaseResolution": 1,
  "PixelBandwidth": 1700,
  "ProcedureStepDescription": "KFU_Entw-Psy",
  "ProtocolName": "fMRI_1",
  "PulseSequenceDetails": "%SiemensSeq%_ep2d_pace",
  "ReceiveCoilActiveElements": "HE1-4",
  "ReceiveCoilName": "HeadNeck_20",
  "ReconMatrixPE": 64,
  "RepetitionTime": 2.34,
  "SAR": 0.181827,
  "ScanOptions": "FS",
  "ScanningSequence": "EP",
  "SequenceName": "_epfid2d1_64",
  "SequenceVariant": "SK",
  "SeriesDescription": "fMRI_1",
  "SeriesNumber": 2,
  "ShimSetting": [-1590, -3797, -4267, 561, 583, -90, 610, -244],
  "SliceThickness": 3,
  "SliceTiming": [2.25, 2.1825, 2.115, 2.045, 1.9775, 1.91, 1.84, 1.7725, 1.705, 1.6375, 1.5675, 1.5, 1.4325, 1.3625, 1.295, 1.2275, 1.16, 1.09, 1.0225, 0.955, 0.885, 0.8175, 0.75, 0.6825, 0.6125, 0.545, 0.4775, 0.4075, 0.34, 0.2725, 0.2025, 0.135, 0.0675, 0],
  "SoftwareVersions": "syngo_MR_D13",
  "SpacingBetweenSlices": 3.3,
  "StationName": "FBMTMR1",
  "TaskName": "read",
  "TotalReadoutTime": 0.0409508,
  "TxRefAmp": 396.725,
  "dcmmeta_affine": [
    [-2.996082067489624, 0.08892142027616501, -0.1373235583305359, 92.29456329345703],
    [0.10473225265741348, 2.9718050956726074, -0.4364177882671356, -113.99043273925781],
    [-0.11190665513277054, 0.40058356523513794, 3.2681312561035156, -15.11513900756836],
    [0.0, 0.0, 0.0, 1.0]
],
  "dcmmeta_reorient_transform": [
    [0.0, -1.0, 0.0, 63.0],
    [1.0, 0.0, 0.0, 0.0],
    [0.0, 0.0, 1.0, 0.0],
    [0.0, 0.0, 0.0, 1.0]
],
  "dcmmeta_shape": [64, 64, 34, 129],
  "dcmmeta_slice_dim": 2,
  "dcmmeta_version": 0.6,
  "global": {
    "const": {
      "AcquisitionMatrix": [64, 0, 0, 64],
      "AngioFlag": "N",
      "BitsAllocated": 16,
      "BitsStored": 12,
      "BodyPartExamined": "HEAD",
      "Columns": 384,
      "EchoNumbers": 1,
      "EchoTime": 33.0,
      "EchoTrainLength": 64,
      "FlipAngle": 90.0,
      "HighBit": 11,
      "ImageOrientationPatient": [0.99869403922619, -0.034910750554, -0.0373022185645, 0.02964047355847, 0.99060171383019, -0.1335278505927],
      "ImagePositionPatient": [-591.49717664456, -531.96495048976, 92.12005749095],
      "ImageType": [
        "ORIGINAL",
        "PRIMARY",
        "M",
        "ND",
        "NORM",
        "MOSAIC"
],
      "ImagedNucleus": "1H",
      "ImagingFrequency": 123.214247,
      "InPlanePhaseEncodingDirection": "COL",
      "MRAcquisitionType": "2D",
      "MagneticFieldStrength": 3.0,
      "Manufacturer": "SIEMENS",
      "ManufacturerModelName": "Skyra",
      "Modality": "MR",
      "NumberOfAverages": 1.0,
      "NumberOfPhaseEncodingSteps": 64,
      "PercentPhaseFieldOfView": 100.0,
      "PercentSampling": 100.0,
      "PerformedProcedureStepStartTime": "134815.458000",
      "PhotometricInterpretation": "MONOCHROME2",
      "PixelBandwidth": 1700.0,
      "PixelRepresentation": 0,
      "PixelSpacing": [3.0, 3.0],
      "ProtocolName": "fMRI_1",
      "RepetitionTime": 2340.0,
      "Rows": 384,
      "SAR": 0.1818269059135,
      "SamplesPerPixel": 1,
      "ScanOptions": "FS",
      "ScanningSequence": "EP",
      "SequenceName": "*epfid2d1_64",
      "SequenceVariant": "SK",
      "SeriesDescription": "fMRI_1",
      "SeriesNumber": 2,
      "SeriesTime": "135449.920000",
      "SliceLocation": -3.7348556160465,
      "SliceThickness": 3.0,
      "SmallestImagePixelValue": 0,
      "SoftwareVersions": "syngo MR D13",
      "SpacingBetweenSlices": 3.299999959748,
      "SpecificCharacterSet": "ISO_IR 100",
      "StudyID": "1",
      "StudyTime": "134815.405000",
      "TransmitCoilName": "Body",
      "VariableFlipAngleFlag": "N",
      "WindowCenterWidthExplanation": "Algo1",
      "dBdt": 0.0},
    "slices": {}
  },
  "time": {
    "samples": {
      "AcquisitionNumber": [1, 2, 3, 4, 5, 6, 7, 8, 9, 10, 11, 12, 13, 14, 15, 16, 17, 18, 19, 20, 21, 22, 23, 24, 25, 26, 27, 28, 29, 30, 31, 32, 33, 34, 35, 36, 37, 38, 39, 40, 41, 42, 43, 44, 45, 46, 47, 48, 49, 50, 51, 52, 53, 54, 55, 56, 57, 58, 59, 60, 61, 62, 63, 64, 65, 66, 67, 68, 69, 70, 71, 72, 73, 74, 75, 76, 77, 78, 79, 80, 81, 82, 83, 84, 85, 86, 87, 88, 89, 90, 91, 92, 93, 94, 95, 96, 97, 98, 99, 100, 101, 102, 103, 104, 105, 106, 107, 108, 109, 110, 111, 112, 113, 114, 115, 116, 117, 118, 119, 120, 121, 122, 123, 124, 125, 126, 127, 128, 129],
      "AcquisitionTime": ["135351.580000", "135353.920000", "135356.260000", "135358.600000", "135400.940000", "135403.280000", "135405.620000", "135407.960000", "135410.300000", "135412.640000", "135414.980000", "135417.320000", "135419.660000", "135422.000000", "135424.340000", "135426.680000", "135429.020000", "135431.360000", "135433.700000", "135436.040000", "135438.380000", "135440.720000", "135443.060000", "135445.400000", "135447.740000", "135450.080000", "135452.420000", "135454.760000", "135457.100000", "135459.440000", "135501.780000", "135504.120000", "135506.460000", "135508.800000", "135511.140000", "135513.480000", "135515.820000", "135518.160000", "135520.500000", "135522.840000", "135525.180000", "135527.520000", "135529.860000", "135532.200000", "135534.540000", "135536.880000", "135539.220000", "135541.560000", "135543.900000", "135546.240000", "135548.580000", "135550.920000", "135553.260000", "135555.600000", "135557.940000", "135600.280000", "135602.620000", "135604.960000", "135607.300000", "135609.640000", "135611.980000", "135614.320000", "135616.660000", "135619.000000", "135621.340000", "135623.680000", "135626.020000", "135628.360000", "135630.700000", "135633.040000", "135635.380000", "135637.720000", "135640.060000", "135642.400000", "135644.740000", "135647.080000", "135649.420000", "135651.760000", "135654.100000", "135656.440000", "135658.780000", "135701.120000", "135703.460000", "135705.800000", "135708.140000", "135710.480000", "135712.820000", "135715.160000", "135717.500000", "135719.840000", "135722.180000", "135724.520000", "135726.860000", "135729.200000", "135731.540000", "135733.880000", "135736.220000", "135738.560000", "135740.900000", "135743.240000", "135745.580000", "135747.920000", "135750.260000", "135752.600000", "135754.940000", "135757.280000", "135759.620000", "135801.960000", "135804.300000", "135806.640000", "135808.980000", "135811.320000", "135813.660000", "135816.000000", "135818.340000", "135820.680000", "135823.020000", "135825.360000", "135827.700000", "135830.040000", "135832.380000", "135834.720000", "135837.060000", "135839.400000", "135841.740000", "135844.080000", "135846.420000", "135848.760000", "135851.100000"],
      "ContentTime": ["135449.924000", "135449.928000", "135449.931000", "135449.934000", "135449.936000", "135449.940000", "135449.942000", "135449.945000", "135449.948000", "135449.951000", "135449.953000", "135449.956000", "135449.959000", "135449.962000", "135449.965000", "135449.968000", "135449.971000", "135449.974000", "135449.977000", "135449.980000", "135449.983000", "135449.986000", "135449.989000", "135449.992000", "135449.995000", "135549.910000", "135549.914000", "135549.917000", "135549.920000", "135549.923000", "135549.925000", "135549.928000", "135549.931000", "135549.934000", "135549.937000", "135549.940000", "135549.942000", "135549.945000", "135549.948000", "135549.951000", "135549.953000", "135549.956000", "135549.959000", "135549.962000", "135549.965000", "135549.968000", "135549.970000", "135549.974000", "135549.976000", "135549.979000", "135549.982000", "135649.908000", "135649.911000", "135649.914000", "135649.917000", "135649.919000", "135649.922000", "135649.924000", "135649.936000", "135649.939000", "135649.941000", "135649.944000", "135649.947000", "135649.950000", "135649.952000", "135649.955000", "135649.958000", "135649.960000", "135649.963000", "135649.966000", "135649.968000", "135649.971000", "135649.973000", "135649.976000", "135649.979000", "135649.982000", "135749.910000", "135749.922000", "135749.925000", "135749.927000", "135749.931000", "135749.934000", "135749.936000", "135749.939000", "135749.942000", "135749.945000", "135749.948000", "135749.951000", "135749.953000", "135749.956000", "135749.959000", "135749.962000", "135749.965000", "135749.968000", "135749.971000", "135749.974000", "135749.976000", "135749.979000", "135749.982000", "135749.985000", "135749.988000", "135749.991000", "135849.910000", "135849.914000", "135849.917000", "135849.919000", "135849.922000", "135849.925000", "135849.928000", "135849.931000", "135849.934000", "135849.937000", "135849.939000", "135849.943000", "135849.945000", "135849.948000", "135849.951000", "135849.954000", "135849.957000", "135849.960000", "135849.963000", "135849.966000", "135849.969000", "135849.971000", "135849.974000", "135849.977000", "135849.980000", "135849.983000", "135853.423000"],
      "InstanceCreationTime": ["135449.924000", "135449.928000", "135449.931000", "135449.934000", "135449.936000", "135449.940000", "135449.942000", "135449.945000", "135449.948000", "135449.951000", "135449.953000", "135449.956000", "135449.959000", "135449.962000", "135449.965000", "135449.968000", "135449.971000", "135449.974000", "135449.977000", "135449.980000", "135449.983000", "135449.986000", "135449.989000", "135449.992000", "135449.995000", "135549.910000", "135549.914000", "135549.917000", "135549.920000", "135549.923000", "135549.925000", "135549.928000", "135549.931000", "135549.934000", "135549.937000", "135549.940000", "135549.942000", "135549.945000", "135549.948000", "135549.951000", "135549.953000", "135549.956000", "135549.959000", "135549.962000", "135549.965000", "135549.968000", "135549.970000", "135549.974000", "135549.976000", "135549.979000", "135549.982000", "135649.908000", "135649.911000", "135649.914000", "135649.917000", "135649.919000", "135649.922000", "135649.924000", "135649.936000", "135649.939000", "135649.941000", "135649.944000", "135649.947000", "135649.950000", "135649.952000", "135649.955000", "135649.958000", "135649.960000", "135649.963000", "135649.966000", "135649.968000", "135649.971000", "135649.973000", "135649.976000", "135649.979000", "135649.982000", "135749.910000", "135749.922000", "135749.925000", "135749.927000", "135749.931000", "135749.934000", "135749.936000", "135749.939000", "135749.942000", "135749.945000", "135749.948000", "135749.951000", "135749.953000", "135749.956000", "135749.959000", "135749.962000", "135749.965000", "135749.968000", "135749.971000", "135749.974000", "135749.976000", "135749.979000", "135749.982000", "135749.985000", "135749.988000", "135749.991000", "135849.910000", "135849.914000", "135849.917000", "135849.919000", "135849.922000", "135849.925000", "135849.928000", "135849.931000", "135849.934000", "135849.937000", "135849.939000", "135849.943000", "135849.945000", "135849.948000", "135849.951000", "135849.954000", "135849.957000", "135849.960000", "135849.963000", "135849.966000", "135849.969000", "135849.971000", "135849.974000", "135849.977000", "135849.980000", "135849.983000", "135853.423000"],
      "InstanceNumber": [1, 2, 3, 4, 5, 6, 7, 8, 9, 10, 11, 12, 13, 14, 15, 16, 17, 18, 19, 20, 21, 22, 23, 24, 25, 26, 27, 28, 29, 30, 31, 32, 33, 34, 35, 36, 37, 38, 39, 40, 41, 42, 43, 44, 45, 46, 47, 48, 49, 50, 51, 52, 53, 54, 55, 56, 57, 58, 59, 60, 61, 62, 63, 64, 65, 66, 67, 68, 69, 70, 71, 72, 73, 74, 75, 76, 77, 78, 79, 80, 81, 82, 83, 84, 85, 86, 87, 88, 89, 90, 91, 92, 93, 94, 95, 96, 97, 98, 99, 100, 101, 102, 103, 104, 105, 106, 107, 108, 109, 110, 111, 112, 113, 114, 115, 116, 117, 118, 119, 120, 121, 122, 123, 124, 125, 126, 127, 128, 129],
      "LargestImagePixelValue": [1825, 1768, 1780, 2140, 2034, 1791, 2032, 1802, 2363, 1791, 1851, 2243, 1764, 1823, 1838, 2256, 1759, 1851, 1771, 2141, 2507, 1776, 1774, 1822, 2444, 2097, 1784, 1866, 1933, 1780, 2370, 1850, 1756, 1880, 1878, 2478, 1798, 1864, 1807, 1837, 2354, 1972, 1977, 1938, 1938, 1897, 1861, 2278, 2226, 1797, 1796, 1785, 1831, 1790, 2172, 2194, 2154, 1906, 2143, 1858, 1778, 1819, 2362, 1967, 1810, 1942, 1952, 1868, 1866, 1823, 1797, 1804, 2453, 2073, 1851, 1969, 2207, 2340, 2185, 1826, 1808, 1859, 1853, 1824, 1794, 1890, 2484, 1959, 1924, 1963, 2535, 2234, 1890, 1797, 2049, 1824, 1793, 1858, 1985, 2051, 1861, 1788, 1839, 1835, 1768, 1832, 2351, 2076, 2123, 1908, 1775, 1790, 1763, 1798, 1856, 1913, 1861, 1821, 2057, 2542, 2472, 1900, 1895, 1893, 1823, 1905, 2054, 2074, 1826],
      "WindowCenter": [802.0, 801.0, 800.0, 800.0, 801.0, 800.0, 801.0, 800.0, 799.0, 802.0, 799.0, 802.0, 800.0, 804.0, 799.0, 802.0, 799.0, 799.0, 799.0, 800.0, 801.0, 799.0, 799.0, 802.0, 801.0, 801.0, 799.0, 799.0, 804.0, 802.0, 801.0, 802.0, 801.0, 805.0, 801.0, 805.0, 799.0, 801.0, 803.0, 801.0, 804.0, 803.0, 803.0, 804.0, 804.0, 802.0, 802.0, 805.0, 802.0, 803.0, 801.0, 801.0, 802.0, 800.0, 801.0, 804.0, 804.0, 807.0, 802.0, 802.0, 801.0, 805.0, 805.0, 801.0, 799.0, 807.0, 803.0, 803.0, 803.0, 804.0, 804.0, 802.0, 804.0, 804.0, 803.0, 804.0, 801.0, 799.0, 798.0, 799.0, 802.0, 803.0, 803.0, 802.0, 802.0, 804.0, 801.0, 805.0, 802.0, 801.0, 802.0, 799.0, 797.0, 800.0, 799.0, 802.0, 801.0, 802.0, 805.0, 806.0, 806.0, 805.0, 804.0, 809.0, 807.0, 806.0, 808.0, 805.0, 802.0, 807.0, 805.0, 805.0, 805.0, 802.0, 802.0, 807.0, 804.0, 805.0, 805.0, 807.0, 805.0, 809.0, 806.0, 814.0, 813.0, 809.0, 805.0, 806.0, 805.0],
      "WindowWidth": [1696.0, 1692.0, 1691.0, 1693.0, 1693.0, 1690.0, 1694.0, 1691.0, 1692.0, 1694.0, 1688.0, 1696.0, 1690.0, 1702.0, 1693.0, 1696.0, 1688.0, 1690.0, 1689.0, 1691.0, 1697.0, 1689.0, 1688.0, 1696.0, 1698.0, 1693.0, 1687.0, 1689.0, 1698.0, 1695.0, 1694.0, 1696.0, 1692.0, 1706.0, 1694.0, 1706.0, 1687.0, 1697.0, 1699.0, 1693.0, 1701.0, 1698.0, 1698.0, 1704.0, 1702.0, 1695.0, 1697.0, 1703.0, 1700.0, 1698.0, 1694.0, 1694.0, 1698.0, 1692.0, 1695.0, 1703.0, 1699.0, 1708.0, 1700.0, 1696.0, 1691.0, 1705.0, 1705.0, 1693.0, 1691.0, 1710.0, 1700.0, 1700.0, 1700.0, 1703.0, 1702.0, 1697.0, 1701.0, 1701.0, 1699.0, 1702.0, 1698.0, 1691.0, 1687.0, 1690.0, 1696.0, 1698.0, 1700.0, 1697.0, 1697.0, 1700.0, 1699.0, 1702.0, 1698.0, 1693.0, 1697.0, 1688.0, 1683.0, 1694.0, 1691.0, 1696.0, 1695.0, 1698.0, 1704.0, 1705.0, 1709.0, 1704.0, 1704.0, 1715.0, 1708.0, 1709.0, 1711.0, 1701.0, 1698.0, 1708.0, 1702.0, 1708.0, 1703.0, 1696.0, 1698.0, 1709.0, 1702.0, 1704.0, 1707.0, 1712.0, 1701.0, 1712.0, 1708.0, 1729.0, 1727.0, 1716.0, 1705.0, 1706.0, 1704.0]
    },
    "slices": {}
  }
}