{
  "AcquisitionMatrixPE": 64,
  "AcquisitionNumber": 1,
  "AcquisitionTime": "14:05:54.905000",
  "BandwidthPerPixelPhaseEncode": 24.038,
  "BaseResolution": 64,
  "BodyPartExamined": "HEAD",
  "ConsistencyInfo": "N4_VD13A_LATEST_20120616",
  "ConversionSoftware": "dcm2niix",
  "ConversionSoftwareVersion": "v1.0.20181125  GCC6.3.0",
  "DerivedVendorReportedEchoSpacing": 0.000650012,
  "DeviceSerialNumber": "45250",
  "DwellTime": 4.6e-06,
  "EchoTime": 0.033,
  "EchoTrainLength": 64,
  "EffectiveEchoSpacing": 0.000650012,
  "FlipAngle": 90,
  "ImageOrientationPatientDICOM": [0.998694, -0.0349107, -0.0373022, 0.0296405, 0.990602, -0.133528],
  "ImageType": [
    "ORIGINAL",
    "PRIMARY",
    "M",
    "ND",
    "NORM",
    "MOSAIC"
],
  "ImagingFrequency": 123.214,
  "InPlanePhaseEncodingDirectionDICOM": "COL",
  "InstitutionAddress": "Kopernikusstr._26_Graz_Graz_AT_8010",
  "InstitutionName": "KFU",
  "InstitutionalDepartmentName": "Department",
  "MRAcquisitionType": "2D",
  "MagneticFieldStrength": 3,
  "Manufacturer": "Siemens",
  "ManufacturersModelName": "Skyra",
  "Modality": "MR",
  "PartialFourier": 1,
  "PatientPosition": "HFS",
  "PercentPhaseFOV": 100,
  "PhaseEncodingDirection": "j-",
  "PhaseEncodingSteps": 64,
  "PhaseResolution": 1,
  "PixelBandwidth": 1700,
  "ProcedureStepDescription": "KFU_Entw-Psy",
  "ProtocolName": "fMRI_3",
  "PulseSequenceDetails": "%SiemensSeq%_ep2d_pace",
  "ReceiveCoilActiveElements": "HE1-4",
  "ReceiveCoilName": "HeadNeck_20",
  "ReconMatrixPE": 64,
  "RepetitionTime": 2.34,
  "SAR": 0.181827,
  "ScanOptions": "FS",
  "ScanningSequence": "EP",
  "SequenceName": "_epfid2d1_64",
  "SequenceVariant": "SK",
  "SeriesDescription": "fMRI_3",
  "SeriesNumber": 8,
  "ShimSetting": [-1590, -3797, -4267, 561, 583, -90, 610, -244],
  "SliceThickness": 3,
  "SliceTiming": [2.25, 2.1825, 2.115, 2.0475, 1.9775, 1.91, 1.8425, 1.7725, 1.705, 1.6375, 1.57, 1.5, 1.4325, 1.365, 1.295, 1.2275, 1.16, 1.09, 1.0225, 0.955, 0.8875, 0.8175, 0.75, 0.6825, 0.6125, 0.545, 0.4775, 0.41, 0.34, 0.2725, 0.205, 0.135, 0.0675, 0],
  "SoftwareVersions": "syngo_MR_D13",
  "SpacingBetweenSlices": 3.3,
  "StationName": "FBMTMR1",
  "TaskName": "read",
  "TotalReadoutTime": 0.0409508,
  "TxRefAmp": 396.725,
  "dcmmeta_affine": [
    [-2.996082067489624, 0.08892142027616501, -0.1373235583305359, 92.29456329345703],
    [0.10473225265741348, 2.9718050956726074, -0.4364177882671356, -113.99043273925781],
    [-0.11190665513277054, 0.40058356523513794, 3.2681312561035156, -15.11513900756836],
    [0.0, 0.0, 0.0, 1.0]
],
  "dcmmeta_reorient_transform": [
    [0.0, -1.0, 0.0, 63.0],
    [1.0, 0.0, 0.0, 0.0],
    [0.0, 0.0, 1.0, 0.0],
    [0.0, 0.0, 0.0, 1.0]
],
  "dcmmeta_shape": [64, 64, 34, 124],
  "dcmmeta_slice_dim": 2,
  "dcmmeta_version": 0.6,
  "global": {
    "const": {
      "AcquisitionMatrix": [64, 0, 0, 64],
      "AngioFlag": "N",
      "BitsAllocated": 16,
      "BitsStored": 12,
      "BodyPartExamined": "HEAD",
      "Columns": 384,
      "EchoNumbers": 1,
      "EchoTime": 33.0,
      "EchoTrainLength": 64,
      "FlipAngle": 90.0,
      "HighBit": 11,
      "ImageOrientationPatient": [0.99869403922619, -0.034910750554, -0.0373022185645, 0.02964047355847, 0.99060171383019, -0.1335278505927],
      "ImagePositionPatient": [-591.49717664456, -531.96495048976, 92.12005749095],
      "ImageType": [
        "ORIGINAL",
        "PRIMARY",
        "M",
        "ND",
        "NORM",
        "MOSAIC"
],
      "ImagedNucleus": "1H",
      "ImagingFrequency": 123.214265,
      "InPlanePhaseEncodingDirection": "COL",
      "MRAcquisitionType": "2D",
      "MagneticFieldStrength": 3.0,
      "Manufacturer": "SIEMENS",
      "ManufacturerModelName": "Skyra",
      "Modality": "MR",
      "NumberOfAverages": 1.0,
      "NumberOfPhaseEncodingSteps": 64,
      "PercentPhaseFieldOfView": 100.0,
      "PercentSampling": 100.0,
      "PerformedProcedureStepStartTime": "134815.458000",
      "PhotometricInterpretation": "MONOCHROME2",
      "PixelBandwidth": 1700.0,
      "PixelRepresentation": 0,
      "PixelSpacing": [3.0, 3.0],
      "ProtocolName": "fMRI_3",
      "RepetitionTime": 2340.0,
      "Rows": 384,
      "SAR": 0.1818269059135,
      "SamplesPerPixel": 1,
      "ScanOptions": "FS",
      "ScanningSequence": "EP",
      "SequenceName": "*epfid2d1_64",
      "SequenceVariant": "SK",
      "SeriesDescription": "fMRI_3",
      "SeriesNumber": 8,
      "SeriesTime": "140649.443000",
      "SliceLocation": -3.7348556160465,
      "SliceThickness": 3.0,
      "SmallestImagePixelValue": 0,
      "SoftwareVersions": "syngo MR D13",
      "SpacingBetweenSlices": 3.299999959748,
      "SpecificCharacterSet": "ISO_IR 100",
      "StudyID": "1",
      "StudyTime": "134815.405000",
      "TransmitCoilName": "Body",
      "VariableFlipAngleFlag": "N",
      "WindowCenterWidthExplanation": "Algo1",
      "dBdt": 0.0},
    "slices": {}
  },
  "time": {
    "samples": {
      "AcquisitionNumber": [1, 2, 3, 4, 5, 6, 7, 8, 9, 10, 11, 12, 13, 14, 15, 16, 17, 18, 19, 20, 21, 22, 23, 24, 25, 26, 27, 28, 29, 30, 31, 32, 33, 34, 35, 36, 37, 38, 39, 40, 41, 42, 43, 44, 45, 46, 47, 48, 49, 50, 51, 52, 53, 54, 55, 56, 57, 58, 59, 60, 61, 62, 63, 64, 65, 66, 67, 68, 69, 70, 71, 72, 73, 74, 75, 76, 77, 78, 79, 80, 81, 82, 83, 84, 85, 86, 87, 88, 89, 90, 91, 92, 93, 94, 95, 96, 97, 98, 99, 100, 101, 102, 103, 104, 105, 106, 107, 108, 109, 110, 111, 112, 113, 114, 115, 116, 117, 118, 119, 120, 121, 122, 123, 124],
      "AcquisitionTime": ["140554.905000", "140557.245000", "140559.585000", "140601.925000", "140604.265000", "140606.605000", "140608.945000", "140611.285000", "140613.625000", "140615.965000", "140618.305000", "140620.645000", "140622.985000", "140625.325000", "140627.665000", "140630.005000", "140632.345000", "140634.685000", "140637.025000", "140639.365000", "140641.705000", "140644.045000", "140646.385000", "140648.725000", "140651.065000", "140653.405000", "140655.745000", "140658.085000", "140700.425000", "140702.765000", "140705.105000", "140707.445000", "140709.785000", "140712.125000", "140714.465000", "140716.805000", "140719.145000", "140721.485000", "140723.825000", "140726.165000", "140728.505000", "140730.845000", "140733.185000", "140735.525000", "140737.865000", "140740.205000", "140742.545000", "140744.885000", "140747.225000", "140749.565000", "140751.905000", "140754.245000", "140756.585000", "140758.925000", "140801.265000", "140803.605000", "140805.945000", "140808.285000", "140810.625000", "140812.965000", "140815.305000", "140817.645000", "140819.985000", "140822.325000", "140824.665000", "140827.005000", "140829.345000", "140831.685000", "140834.025000", "140836.365000", "140838.705000", "140841.045000", "140843.385000", "140845.725000", "140848.065000", "140850.405000", "140852.745000", "140855.085000", "140857.425000", "140859.765000", "140902.105000", "140904.445000", "140906.785000", "140909.125000", "140911.465000", "140913.805000", "140916.145000", "140918.485000", "140920.825000", "140923.165000", "140925.505000", "140927.845000", "140930.185000", "140932.525000", "140934.865000", "140937.205000", "140939.545000", "140941.885000", "140944.225000", "140946.565000", "140948.905000", "140951.245000", "140953.585000", "140955.925000", "140958.265000", "141000.605000", "141002.945000", "141005.285000", "141007.625000", "141009.965000", "141012.305000", "141014.645000", "141016.985000", "141019.325000", "141021.665000", "141024.005000", "141026.345000", "141028.685000", "141031.025000", "141033.365000", "141035.705000", "141038.045000", "141040.385000", "141042.725000"],
      "ContentTime": ["140649.447000", "140649.451000", "140649.453000", "140649.456000", "140649.459000", "140649.461000", "140649.464000", "140649.472000", "140649.475000", "140649.477000", "140649.480000", "140649.483000", "140649.485000", "140649.488000", "140649.491000", "140649.493000", "140649.496000", "140649.499000", "140649.501000", "140649.504000", "140649.507000", "140649.509000", "140649.512000", "140649.515000", "140749.443000", "140749.446000", "140749.449000", "140749.451000", "140749.454000", "140749.457000", "140749.459000", "140749.462000", "140749.464000", "140749.467000", "140749.470000", "140749.473000", "140749.476000", "140749.479000", "140749.482000", "140749.484000", "140749.487000", "140749.490000", "140749.493000", "140749.496000", "140749.498000", "140749.501000", "140749.503000", "140749.506000", "140749.509000", "140849.442000", "140849.445000", "140849.448000", "140849.450000", "140849.453000", "140849.456000", "140849.458000", "140849.461000", "140849.463000", "140849.466000", "140849.469000", "140849.472000", "140849.475000", "140849.477000", "140849.480000", "140849.483000", "140849.486000", "140849.489000", "140849.491000", "140849.495000", "140849.498000", "140849.508000", "140849.511000", "140849.513000", "140849.516000", "140849.519000", "140949.444000", "140949.447000", "140949.450000", "140949.458000", "140949.461000", "140949.464000", "140949.467000", "140949.470000", "140949.473000", "140949.476000", "140949.478000", "140949.481000", "140949.484000", "140949.487000", "140949.490000", "140949.493000", "140949.496000", "140949.498000", "140949.501000", "140949.504000", "140949.507000", "140949.510000", "140949.513000", "140949.516000", "140949.518000", "140949.521000", "141043.388000", "141043.391000", "141043.394000", "141043.397000", "141043.400000", "141043.407000", "141043.410000", "141043.413000", "141043.416000", "141043.419000", "141043.422000", "141043.425000", "141043.428000", "141043.431000", "141043.434000", "141043.437000", "141043.440000", "141043.443000", "141043.446000", "141043.448000", "141043.451000", "141043.454000", "141043.457000"],
      "InstanceCreationTime": ["140649.447000", "140649.451000", "140649.453000", "140649.456000", "140649.459000", "140649.461000", "140649.464000", "140649.472000", "140649.475000", "140649.477000", "140649.480000", "140649.483000", "140649.485000", "140649.488000", "140649.491000", "140649.493000", "140649.496000", "140649.499000", "140649.501000", "140649.504000", "140649.507000", "140649.509000", "140649.512000", "140649.515000", "140749.443000", "140749.446000", "140749.449000", "140749.451000", "140749.454000", "140749.457000", "140749.459000", "140749.462000", "140749.464000", "140749.467000", "140749.470000", "140749.473000", "140749.476000", "140749.479000", "140749.482000", "140749.484000", "140749.487000", "140749.490000", "140749.493000", "140749.496000", "140749.498000", "140749.501000", "140749.503000", "140749.506000", "140749.509000", "140849.442000", "140849.445000", "140849.448000", "140849.450000", "140849.453000", "140849.456000", "140849.458000", "140849.461000", "140849.463000", "140849.466000", "140849.469000", "140849.472000", "140849.475000", "140849.477000", "140849.480000", "140849.483000", "140849.486000", "140849.489000", "140849.491000", "140849.495000", "140849.498000", "140849.508000", "140849.511000", "140849.513000", "140849.516000", "140849.519000", "140949.444000", "140949.447000", "140949.450000", "140949.458000", "140949.461000", "140949.464000", "140949.467000", "140949.470000", "140949.473000", "140949.476000", "140949.478000", "140949.481000", "140949.484000", "140949.487000", "140949.490000", "140949.493000", "140949.496000", "140949.498000", "140949.501000", "140949.504000", "140949.507000", "140949.510000", "140949.513000", "140949.516000", "140949.518000", "140949.521000", "141043.388000", "141043.391000", "141043.394000", "141043.397000", "141043.400000", "141043.407000", "141043.410000", "141043.413000", "141043.416000", "141043.419000", "141043.422000", "141043.425000", "141043.428000", "141043.431000", "141043.434000", "141043.437000", "141043.440000", "141043.443000", "141043.446000", "141043.448000", "141043.451000", "141043.454000", "141043.457000"],
      "InstanceNumber": [1, 2, 3, 4, 5, 6, 7, 8, 9, 10, 11, 12, 13, 14, 15, 16, 17, 18, 19, 20, 21, 22, 23, 24, 25, 26, 27, 28, 29, 30, 31, 32, 33, 34, 35, 36, 37, 38, 39, 40, 41, 42, 43, 44, 45, 46, 47, 48, 49, 50, 51, 52, 53, 54, 55, 56, 57, 58, 59, 60, 61, 62, 63, 64, 65, 66, 67, 68, 69, 70, 71, 72, 73, 74, 75, 76, 77, 78, 79, 80, 81, 82, 83, 84, 85, 86, 87, 88, 89, 90, 91, 92, 93, 94, 95, 96, 97, 98, 99, 100, 101, 102, 103, 104, 105, 106, 107, 108, 109, 110, 111, 112, 113, 114, 115, 116, 117, 118, 119, 120, 121, 122, 123, 124],
      "LargestImagePixelValue": [2364, 1854, 1900, 2152, 2075, 1910, 2277, 2322, 2272, 2215, 2256, 2137, 2361, 1770, 1807, 1779, 1868, 2233, 2394, 2137, 2133, 2273, 1962, 1896, 2110, 1880, 1884, 2584, 1895, 1880, 2027, 2346, 1852, 1849, 1848, 2342, 1740, 1922, 1813, 2117, 2100, 2088, 1803, 2427, 2235, 2003, 1790, 1977, 2139, 2603, 2044, 2505, 2403, 1950, 1848, 1989, 1872, 1850, 1890, 2047, 2182, 1859, 1963, 1984, 2235, 1922, 2583, 2099, 2106, 1885, 2486, 2475, 2562, 2583, 2854, 1878, 1758, 1867, 1909, 1798, 1798, 2206, 2412, 1920, 1907, 1880, 2049, 2322, 2185, 2146, 2191, 1855, 2009, 2092, 2087, 2389, 2256, 2170, 2037, 1999, 2004, 2046, 1740, 1795, 2282, 2410, 2078, 1845, 2295, 2244, 2070, 2253, 2054, 2178, 1904, 2168, 2176, 2057, 1979, 1865, 1890, 2004, 1853, 2344],
      "WindowCenter": [800.0, 798.0, 798.0, 800.0, 802.0, 798.0, 798.0, 799.0, 799.0, 802.0, 798.0, 794.0, 799.0, 802.0, 801.0, 801.0, 800.0, 802.0, 799.0, 799.0, 799.0, 800.0, 798.0, 805.0, 801.0, 799.0, 798.0, 797.0, 794.0, 798.0, 797.0, 801.0, 801.0, 801.0, 800.0, 800.0, 796.0, 801.0, 799.0, 801.0, 799.0, 801.0, 799.0, 803.0, 799.0, 795.0, 798.0, 800.0, 798.0, 796.0, 801.0, 799.0, 792.0, 792.0, 788.0, 789.0, 794.0, 791.0, 793.0, 799.0, 795.0, 802.0, 796.0, 801.0, 797.0, 800.0, 803.0, 799.0, 802.0, 801.0, 801.0, 802.0, 806.0, 800.0, 789.0, 792.0, 790.0, 803.0, 806.0, 794.0, 798.0, 799.0, 801.0, 801.0, 801.0, 802.0, 802.0, 802.0, 801.0, 803.0, 804.0, 802.0, 802.0, 801.0, 801.0, 803.0, 799.0, 803.0, 801.0, 799.0, 802.0, 801.0, 803.0, 801.0, 801.0, 803.0, 799.0, 805.0, 798.0, 803.0, 799.0, 802.0, 804.0, 803.0, 803.0, 803.0, 804.0, 803.0, 804.0, 800.0, 799.0, 799.0, 799.0, 802.0],
      "WindowWidth": [1690.0, 1683.0, 1686.0, 1688.0, 1691.0, 1682.0, 1685.0, 1687.0, 1686.0, 1692.0, 1684.0, 1666.0, 1685.0, 1700.0, 1695.0, 1690.0, 1691.0, 1694.0, 1686.0, 1689.0, 1688.0, 1690.0, 1685.0, 1702.0, 1694.0, 1687.0, 1684.0, 1682.0, 1677.0, 1685.0, 1682.0, 1690.0, 1689.0, 1692.0, 1688.0, 1687.0, 1679.0, 1690.0, 1688.0, 1693.0, 1686.0, 1693.0, 1686.0, 1696.0, 1686.0, 1677.0, 1684.0, 1691.0, 1685.0, 1688.0, 1688.0, 1684.0, 1668.0, 1665.0, 1657.0, 1664.0, 1672.0, 1668.0, 1674.0, 1684.0, 1676.0, 1693.0, 1683.0, 1690.0, 1681.0, 1691.0, 1695.0, 1689.0, 1692.0, 1690.0, 1698.0, 1696.0, 1703.0, 1690.0, 1666.0, 1658.0, 1662.0, 1700.0, 1704.0, 1676.0, 1683.0, 1685.0, 1687.0, 1690.0, 1690.0, 1694.0, 1695.0, 1694.0, 1692.0, 1697.0, 1698.0, 1692.0, 1695.0, 1693.0, 1694.0, 1696.0, 1687.0, 1695.0, 1692.0, 1686.0, 1696.0, 1691.0, 1693.0, 1693.0, 1693.0, 1695.0, 1683.0, 1699.0, 1690.0, 1696.0, 1685.0, 1697.0, 1697.0, 1696.0, 1697.0, 1699.0, 1696.0, 1698.0, 1697.0, 1690.0, 1687.0, 1686.0, 1685.0, 1693.0]
    },
    "slices": {}
  }
}