{
  "AcquisitionMatrixPE": 64,
  "AcquisitionNumber": 1,
  "AcquisitionTime": "13:59:53.650000",
  "BandwidthPerPixelPhaseEncode": 24.038,
  "BaseResolution": 64,
  "BodyPartExamined": "HEAD",
  "ConsistencyInfo": "N4_VD13A_LATEST_20120616",
  "ConversionSoftware": "dcm2niix",
  "ConversionSoftwareVersion": "v1.0.20181125  GCC6.3.0",
  "DerivedVendorReportedEchoSpacing": 0.000650012,
  "DeviceSerialNumber": "45250",
  "DwellTime": 4.6e-06,
  "EchoTime": 0.033,
  "EchoTrainLength": 64,
  "EffectiveEchoSpacing": 0.000650012,
  "FlipAngle": 90,
  "ImageOrientationPatientDICOM": [0.998694, -0.0349107, -0.0373022, 0.0296405, 0.990602, -0.133528],
  "ImageType": [
    "ORIGINAL",
    "PRIMARY",
    "M",
    "ND",
    "NORM",
    "MOSAIC"
],
  "ImagingFrequency": 123.214,
  "InPlanePhaseEncodingDirectionDICOM": "COL",
  "InstitutionAddress": "Kopernikusstr._26_Graz_Graz_AT_8010",
  "InstitutionName": "KFU",
  "InstitutionalDepartmentName": "Department",
  "MRAcquisitionType": "2D",
  "MagneticFieldStrength": 3,
  "Manufacturer": "Siemens",
  "ManufacturersModelName": "Skyra",
  "Modality": "MR",
  "PartialFourier": 1,
  "PatientPosition": "HFS",
  "PercentPhaseFOV": 100,
  "PhaseEncodingDirection": "j-",
  "PhaseEncodingSteps": 64,
  "PhaseResolution": 1,
  "PixelBandwidth": 1700,
  "ProcedureStepDescription": "KFU_Entw-Psy",
  "ProtocolName": "fMRI_2",
  "PulseSequenceDetails": "%SiemensSeq%_ep2d_pace",
  "ReceiveCoilActiveElements": "HE1-4",
  "ReceiveCoilName": "HeadNeck_20",
  "ReconMatrixPE": 64,
  "RepetitionTime": 2.34,
  "SAR": 0.181827,
  "ScanOptions": "FS",
  "ScanningSequence": "EP",
  "SequenceName": "_epfid2d1_64",
  "SequenceVariant": "SK",
  "SeriesDescription": "fMRI_2",
  "SeriesNumber": 5,
  "ShimSetting": [-1590, -3797, -4267, 561, 583, -90, 610, -244],
  "SliceThickness": 3,
  "SliceTiming": [2.2525, 2.1825, 2.115, 2.0475, 1.98, 1.91, 1.8425, 1.775, 1.705, 1.6375, 1.57, 1.5025, 1.4325, 1.365, 1.2975, 1.2275, 1.16, 1.0925, 1.025, 0.955, 0.8875, 0.82, 0.75, 0.6825, 0.615, 0.545, 0.4775, 0.41, 0.3425, 0.2725, 0.205, 0.1375, 0.0675, 0],
  "SoftwareVersions": "syngo_MR_D13",
  "SpacingBetweenSlices": 3.3,
  "StationName": "FBMTMR1",
  "TaskName": "read",
  "TotalReadoutTime": 0.0409508,
  "TxRefAmp": 396.725,
  "dcmmeta_affine": [
    [-2.996082067489624, 0.08892142027616501, -0.1373235583305359, 92.29456329345703],
    [0.10473225265741348, 2.9718050956726074, -0.4364177882671356, -113.99043273925781],
    [-0.11190665513277054, 0.40058356523513794, 3.2681312561035156, -15.11513900756836],
    [0.0, 0.0, 0.0, 1.0]
],
  "dcmmeta_reorient_transform": [
    [0.0, -1.0, 0.0, 63.0],
    [1.0, 0.0, 0.0, 0.0],
    [0.0, 0.0, 1.0, 0.0],
    [0.0, 0.0, 0.0, 1.0]
],
  "dcmmeta_shape": [64, 64, 34, 129],
  "dcmmeta_slice_dim": 2,
  "dcmmeta_version": 0.6,
  "global": {
    "const": {
      "AcquisitionMatrix": [64, 0, 0, 64],
      "AngioFlag": "N",
      "BitsAllocated": 16,
      "BitsStored": 12,
      "BodyPartExamined": "HEAD",
      "Columns": 384,
      "EchoNumbers": 1,
      "EchoTime": 33.0,
      "EchoTrainLength": 64,
      "FlipAngle": 90.0,
      "HighBit": 11,
      "ImageOrientationPatient": [0.99869403922619, -0.034910750554, -0.0373022185645, 0.02964047355847, 0.99060171383019, -0.1335278505927],
      "ImagePositionPatient": [-591.49717664456, -531.96495048976, 92.12005749095],
      "ImageType": [
        "ORIGINAL",
        "PRIMARY",
        "M",
        "ND",
        "NORM",
        "MOSAIC"
],
      "ImagedNucleus": "1H",
      "ImagingFrequency": 123.214256,
      "InPlanePhaseEncodingDirection": "COL",
      "MRAcquisitionType": "2D",
      "MagneticFieldStrength": 3.0,
      "Manufacturer": "SIEMENS",
      "ManufacturerModelName": "Skyra",
      "Modality": "MR",
      "NumberOfAverages": 1.0,
      "NumberOfPhaseEncodingSteps": 64,
      "PercentPhaseFieldOfView": 100.0,
      "PercentSampling": 100.0,
      "PerformedProcedureStepStartTime": "134815.458000",
      "PhotometricInterpretation": "MONOCHROME2",
      "PixelBandwidth": 1700.0,
      "PixelRepresentation": 0,
      "PixelSpacing": [3.0, 3.0],
      "ProtocolName": "fMRI_2",
      "RepetitionTime": 2340.0,
      "Rows": 384,
      "SAR": 0.1818269059135,
      "SamplesPerPixel": 1,
      "ScanOptions": "FS",
      "ScanningSequence": "EP",
      "SequenceName": "*epfid2d1_64",
      "SequenceVariant": "SK",
      "SeriesDescription": "fMRI_2",
      "SeriesNumber": 5,
      "SeriesTime": "140042.275000",
      "SliceLocation": -3.7348556160465,
      "SliceThickness": 3.0,
      "SmallestImagePixelValue": 0,
      "SoftwareVersions": "syngo MR D13",
      "SpacingBetweenSlices": 3.299999959748,
      "SpecificCharacterSet": "ISO_IR 100",
      "StudyID": "1",
      "StudyTime": "134815.405000",
      "TransmitCoilName": "Body",
      "VariableFlipAngleFlag": "N",
      "WindowCenterWidthExplanation": "Algo1",
      "dBdt": 0.0},
    "slices": {}
  },
  "time": {
    "samples": {
      "AcquisitionNumber": [1, 2, 3, 4, 5, 6, 7, 8, 9, 10, 11, 12, 13, 14, 15, 16, 17, 18, 19, 20, 21, 22, 23, 24, 25, 26, 27, 28, 29, 30, 31, 32, 33, 34, 35, 36, 37, 38, 39, 40, 41, 42, 43, 44, 45, 46, 47, 48, 49, 50, 51, 52, 53, 54, 55, 56, 57, 58, 59, 60, 61, 62, 63, 64, 65, 66, 67, 68, 69, 70, 71, 72, 73, 74, 75, 76, 77, 78, 79, 80, 81, 82, 83, 84, 85, 86, 87, 88, 89, 90, 91, 92, 93, 94, 95, 96, 97, 98, 99, 100, 101, 102, 103, 104, 105, 106, 107, 108, 109, 110, 111, 112, 113, 114, 115, 116, 117, 118, 119, 120, 121, 122, 123, 124, 125, 126, 127, 128, 129],
      "AcquisitionTime": ["135953.650000", "135955.990000", "135958.330000", "140000.670000", "140003.010000", "140005.350000", "140007.690000", "140010.030000", "140012.370000", "140014.710000", "140017.050000", "140019.390000", "140021.730000", "140024.070000", "140026.410000", "140028.750000", "140031.090000", "140033.430000", "140035.770000", "140038.110000", "140040.450000", "140042.790000", "140045.130000", "140047.470000", "140049.810000", "140052.150000", "140054.490000", "140056.830000", "140059.170000", "140101.510000", "140103.850000", "140106.190000", "140108.530000", "140110.870000", "140113.210000", "140115.550000", "140117.890000", "140120.230000", "140122.570000", "140124.910000", "140127.250000", "140129.590000", "140131.930000", "140134.270000", "140136.610000", "140138.950000", "140141.290000", "140143.630000", "140145.970000", "140148.310000", "140150.650000", "140152.990000", "140155.330000", "140157.670000", "140200.010000", "140202.350000", "140204.690000", "140207.030000", "140209.370000", "140211.710000", "140214.050000", "140216.390000", "140218.730000", "140221.070000", "140223.410000", "140225.750000", "140228.090000", "140230.430000", "140232.770000", "140235.110000", "140237.450000", "140239.790000", "140242.130000", "140244.470000", "140246.810000", "140249.150000", "140251.490000", "140253.830000", "140256.170000", "140258.510000", "140300.850000", "140303.190000", "140305.530000", "140307.870000", "140310.210000", "140312.550000", "140314.890000", "140317.230000", "140319.570000", "140321.910000", "140324.250000", "140326.590000", "140328.930000", "140331.270000", "140333.610000", "140335.950000", "140338.290000", "140340.630000", "140342.970000", "140345.310000", "140347.650000", "140349.990000", "140352.330000", "140354.670000", "140357.010000", "140359.350000", "140401.690000", "140404.030000", "140406.370000", "140408.710000", "140411.050000", "140413.390000", "140415.730000", "140418.070000", "140420.410000", "140422.750000", "140425.090000", "140427.430000", "140429.770000", "140432.110000", "140434.450000", "140436.790000", "140439.130000", "140441.470000", "140443.810000", "140446.150000", "140448.490000", "140450.830000", "140453.170000"],
      "ContentTime": ["140042.280000", "140042.283000", "140042.294000", "140042.297000", "140042.300000", "140042.308000", "140042.311000", "140042.314000", "140042.316000", "140042.319000", "140042.321000", "140042.324000", "140042.327000", "140042.329000", "140042.332000", "140042.334000", "140042.337000", "140042.340000", "140042.342000", "140042.345000", "140042.348000", "140142.271000", "140142.275000", "140142.277000", "140142.280000", "140142.283000", "140142.286000", "140142.288000", "140142.291000", "140142.294000", "140142.297000", "140142.300000", "140142.303000", "140142.307000", "140142.310000", "140142.313000", "140142.316000", "140142.319000", "140142.322000", "140142.325000", "140142.327000", "140142.330000", "140142.333000", "140142.335000", "140142.338000", "140142.341000", "140242.273000", "140242.277000", "140242.290000", "140242.293000", "140242.295000", "140242.299000", "140242.301000", "140242.304000", "140242.307000", "140242.310000", "140242.313000", "140242.316000", "140242.318000", "140242.321000", "140242.324000", "140242.326000", "140242.329000", "140242.331000", "140242.334000", "140242.337000", "140242.339000", "140242.342000", "140242.345000", "140242.347000", "140242.350000", "140242.353000", "140342.276000", "140342.280000", "140342.291000", "140342.294000", "140342.297000", "140342.300000", "140342.303000", "140342.306000", "140342.309000", "140342.312000", "140342.315000", "140342.318000", "140342.321000", "140342.324000", "140342.326000", "140342.329000", "140342.332000", "140342.334000", "140342.337000", "140342.340000", "140342.343000", "140342.346000", "140342.349000", "140342.352000", "140342.355000", "140342.358000", "140442.271000", "140442.274000", "140442.284000", "140442.287000", "140442.289000", "140442.292000", "140442.295000", "140442.298000", "140442.300000", "140442.303000", "140442.306000", "140442.308000", "140442.311000", "140442.314000", "140442.317000", "140442.319000", "140442.322000", "140442.324000", "140442.327000", "140442.330000", "140442.333000", "140442.336000", "140442.338000", "140442.341000", "140442.344000", "140456.248000", "140456.251000", "140456.255000", "140456.259000", "140456.264000", "140456.267000"],
      "InstanceCreationTime": ["140042.280000", "140042.283000", "140042.294000", "140042.297000", "140042.300000", "140042.308000", "140042.311000", "140042.314000", "140042.316000", "140042.319000", "140042.321000", "140042.324000", "140042.327000", "140042.329000", "140042.332000", "140042.334000", "140042.337000", "140042.340000", "140042.342000", "140042.345000", "140042.348000", "140142.271000", "140142.275000", "140142.277000", "140142.280000", "140142.283000", "140142.286000", "140142.288000", "140142.291000", "140142.294000", "140142.297000", "140142.300000", "140142.303000", "140142.307000", "140142.310000", "140142.313000", "140142.316000", "140142.319000", "140142.322000", "140142.325000", "140142.327000", "140142.330000", "140142.333000", "140142.335000", "140142.338000", "140142.341000", "140242.273000", "140242.277000", "140242.290000", "140242.293000", "140242.295000", "140242.299000", "140242.301000", "140242.304000", "140242.307000", "140242.310000", "140242.313000", "140242.316000", "140242.318000", "140242.321000", "140242.324000", "140242.326000", "140242.329000", "140242.331000", "140242.334000", "140242.337000", "140242.339000", "140242.342000", "140242.345000", "140242.347000", "140242.350000", "140242.353000", "140342.276000", "140342.280000", "140342.291000", "140342.294000", "140342.297000", "140342.300000", "140342.303000", "140342.306000", "140342.309000", "140342.312000", "140342.315000", "140342.318000", "140342.321000", "140342.324000", "140342.326000", "140342.329000", "140342.332000", "140342.334000", "140342.337000", "140342.340000", "140342.343000", "140342.346000", "140342.349000", "140342.352000", "140342.355000", "140342.358000", "140442.271000", "140442.274000", "140442.284000", "140442.287000", "140442.289000", "140442.292000", "140442.295000", "140442.298000", "140442.300000", "140442.303000", "140442.306000", "140442.308000", "140442.311000", "140442.314000", "140442.317000", "140442.319000", "140442.322000", "140442.324000", "140442.327000", "140442.330000", "140442.333000", "140442.336000", "140442.338000", "140442.341000", "140442.344000", "140456.248000", "140456.251000", "140456.255000", "140456.259000", "140456.264000", "140456.267000"],
      "InstanceNumber": [1, 2, 3, 4, 5, 6, 7, 8, 9, 10, 11, 12, 13, 14, 15, 16, 17, 18, 19, 20, 21, 22, 23, 24, 25, 26, 27, 28, 29, 30, 31, 32, 33, 34, 35, 36, 37, 38, 39, 40, 41, 42, 43, 44, 45, 46, 47, 48, 49, 50, 51, 52, 53, 54, 55, 56, 57, 58, 59, 60, 61, 62, 63, 64, 65, 66, 67, 68, 69, 70, 71, 72, 73, 74, 75, 76, 77, 78, 79, 80, 81, 82, 83, 84, 85, 86, 87, 88, 89, 90, 91, 92, 93, 94, 95, 96, 97, 98, 99, 100, 101, 102, 103, 104, 105, 106, 107, 108, 109, 110, 111, 112, 113, 114, 115, 116, 117, 118, 119, 120, 121, 122, 123, 124, 125, 126, 127, 128, 129],
      "LargestImagePixelValue": [2137, 2053, 1856, 1905, 1956, 1989, 2181, 1983, 1820, 2248, 2304, 1954, 1935, 1858, 1859, 2132, 2190, 2794, 1831, 1818, 1943, 2483, 2224, 1942, 2087, 1867, 2190, 2234, 2106, 1926, 1866, 1849, 1862, 2080, 2100, 1856, 1874, 1945, 1822, 1898, 1929, 1761, 1859, 2113, 2245, 2112, 1778, 1906, 1827, 1882, 2124, 3334, 2379, 1923, 1823, 1945, 1833, 1925, 1840, 2360, 1945, 1887, 1809, 2419, 2422, 1829, 1826, 1992, 2016, 1805, 2372, 2171, 1998, 1858, 1772, 1836, 1887, 1892, 1840, 1861, 1821, 2530, 2591, 2433, 2013, 2313, 1880, 1771, 2208, 1796, 1771, 2422, 2423, 1832, 1783, 1833, 2313, 1985, 1789, 1906, 1895, 2315, 1982, 1793, 1823, 1908, 1910, 2203, 2517, 1948, 1843, 1868, 1894, 2395, 1888, 1816, 2388, 1892, 2086, 1794, 1811, 1839, 2390, 1835, 1865, 1835, 2094, 2232, 2081],
      "WindowCenter": [800.0, 802.0, 804.0, 799.0, 801.0, 797.0, 797.0, 801.0, 798.0, 797.0, 804.0, 797.0, 796.0, 800.0, 795.0, 795.0, 797.0, 805.0, 801.0, 797.0, 799.0, 795.0, 795.0, 796.0, 796.0, 793.0, 794.0, 797.0, 794.0, 798.0, 799.0, 798.0, 799.0, 801.0, 799.0, 802.0, 799.0, 801.0, 799.0, 797.0, 799.0, 794.0, 796.0, 799.0, 797.0, 800.0, 795.0, 801.0, 799.0, 796.0, 793.0, 791.0, 787.0, 792.0, 790.0, 798.0, 795.0, 795.0, 790.0, 790.0, 794.0, 797.0, 794.0, 792.0, 791.0, 800.0, 796.0, 797.0, 796.0, 790.0, 792.0, 794.0, 793.0, 801.0, 794.0, 797.0, 798.0, 793.0, 791.0, 795.0, 792.0, 797.0, 792.0, 792.0, 792.0, 796.0, 797.0, 797.0, 801.0, 801.0, 799.0, 802.0, 804.0, 801.0, 801.0, 800.0, 799.0, 799.0, 800.0, 803.0, 800.0, 803.0, 799.0, 801.0, 802.0, 802.0, 803.0, 803.0, 803.0, 801.0, 801.0, 803.0, 804.0, 797.0, 800.0, 799.0, 801.0, 803.0, 801.0, 804.0, 802.0, 802.0, 803.0, 805.0, 803.0, 802.0, 803.0, 802.0, 801.0],
      "WindowWidth": [1691.0, 1692.0, 1699.0, 1688.0, 1691.0, 1680.0, 1681.0, 1693.0, 1683.0, 1684.0, 1696.0, 1679.0, 1676.0, 1692.0, 1677.0, 1677.0, 1685.0, 1702.0, 1693.0, 1685.0, 1689.0, 1672.0, 1675.0, 1681.0, 1678.0, 1670.0, 1673.0, 1681.0, 1674.0, 1689.0, 1687.0, 1684.0, 1686.0, 1691.0, 1686.0, 1695.0, 1690.0, 1691.0, 1687.0, 1683.0, 1686.0, 1673.0, 1681.0, 1685.0, 1683.0, 1688.0, 1676.0, 1693.0, 1683.0, 1679.0, 1678.0, 1666.0, 1656.0, 1667.0, 1659.0, 1684.0, 1677.0, 1675.0, 1665.0, 1667.0, 1673.0, 1679.0, 1675.0, 1663.0, 1665.0, 1686.0, 1676.0, 1682.0, 1675.0, 1665.0, 1670.0, 1670.0, 1671.0, 1691.0, 1674.0, 1680.0, 1683.0, 1673.0, 1669.0, 1675.0, 1669.0, 1681.0, 1673.0, 1669.0, 1666.0, 1684.0, 1681.0, 1682.0, 1690.0, 1692.0, 1686.0, 1697.0, 1697.0, 1695.0, 1690.0, 1688.0, 1689.0, 1689.0, 1687.0, 1698.0, 1692.0, 1697.0, 1685.0, 1690.0, 1693.0, 1699.0, 1699.0, 1698.0, 1697.0, 1691.0, 1692.0, 1699.0, 1698.0, 1687.0, 1688.0, 1686.0, 1693.0, 1697.0, 1694.0, 1697.0, 1694.0, 1696.0, 1701.0, 1700.0, 1695.0, 1696.0, 1697.0, 1696.0, 1692.0]
    },
    "slices": {}
  }
}