{
  "AcquisitionMatrixPE": 64,
  "AcquisitionNumber": 1,
  "AcquisitionTime": "09:26:44.592500",
  "BandwidthPerPixelPhaseEncode": 24.038,
  "BaseResolution": 64,
  "BodyPartExamined": "HEAD",
  "ConsistencyInfo": "N4_VD13A_LATEST_20120616",
  "ConversionSoftware": "dcm2niix",
  "ConversionSoftwareVersion": "v1.0.20181125  GCC6.3.0",
  "DerivedVendorReportedEchoSpacing": 0.000650012,
  "DeviceSerialNumber": "45250",
  "DwellTime": 4.6e-06,
  "EchoTime": 0.033,
  "EchoTrainLength": 64,
  "EffectiveEchoSpacing": 0.000650012,
  "FlipAngle": 90,
  "ImageOrientationPatientDICOM": [0.999668, 0.0209778, -0.0149592, -0.0226856, 0.991894, -0.125027],
  "ImageType": [
    "ORIGINAL",
    "PRIMARY",
    "M",
    "ND",
    "NORM",
    "MOSAIC"
],
  "ImagingFrequency": 123.214,
  "InPlanePhaseEncodingDirectionDICOM": "COL",
  "InstitutionAddress": "Kopernikusstr._26_Graz_Graz_AT_8010",
  "InstitutionName": "KFU",
  "InstitutionalDepartmentName": "Department",
  "MRAcquisitionType": "2D",
  "MagneticFieldStrength": 3,
  "Manufacturer": "Siemens",
  "ManufacturersModelName": "Skyra",
  "Modality": "MR",
  "PartialFourier": 1,
  "PatientPosition": "HFS",
  "PercentPhaseFOV": 100,
  "PhaseEncodingDirection": "j-",
  "PhaseEncodingSteps": 64,
  "PhaseResolution": 1,
  "PixelBandwidth": 1700,
  "ProcedureStepDescription": "KFU_Entw-Psy",
  "ProtocolName": "fMRI_2",
  "PulseSequenceDetails": "%SiemensSeq%_ep2d_pace",
  "ReceiveCoilActiveElements": "HE1-4",
  "ReceiveCoilName": "HeadNeck_20",
  "ReconMatrixPE": 64,
  "RepetitionTime": 2.34,
  "SAR": 0.184978,
  "ScanOptions": "FS",
  "ScanningSequence": "EP",
  "SequenceName": "_epfid2d1_64",
  "SequenceVariant": "SK",
  "SeriesDescription": "fMRI_2",
  "SeriesNumber": 5,
  "ShimSetting": [-1491, -3650, -4367, 404, 464, 214, 348, -46],
  "SliceThickness": 3,
  "SliceTiming": [2.2525, 2.1825, 2.115, 2.0475, 1.9775, 1.91, 1.8425, 1.775, 1.705, 1.6375, 1.57, 1.5, 1.4325, 1.365, 1.2975, 1.2275, 1.16, 1.0925, 1.0225, 0.955, 0.8875, 0.82, 0.75, 0.6825, 0.615, 0.545, 0.4775, 0.41, 0.34, 0.2725, 0.205, 0.1375, 0.0675, 0],
  "SoftwareVersions": "syngo_MR_D13",
  "SpacingBetweenSlices": 3.3,
  "StationName": "FBMTMR1",
  "TaskName": "read",
  "TotalReadoutTime": 0.0409508,
  "TxRefAmp": 330.462,
  "dcmmeta_affine": [
    [-2.9990041255950928, -0.06805675476789474, -0.04030997306108475, 97.5460205078125],
    [-0.06293337792158127, 2.975681781768799, -0.41357308626174927, -113.49166870117188],
    [-0.04487760365009308, 0.37508198618888855, 3.273733615875244, -18.31861686706543],
    [0.0, 0.0, 0.0, 1.0]
],
  "dcmmeta_reorient_transform": [
    [0.0, -1.0, 0.0, 63.0],
    [1.0, 0.0, 0.0, 0.0],
    [0.0, 0.0, 1.0, 0.0],
    [0.0, 0.0, 0.0, 1.0]
],
  "dcmmeta_shape": [64, 64, 34, 130],
  "dcmmeta_slice_dim": 2,
  "dcmmeta_version": 0.6,
  "global": {
    "const": {
      "AcquisitionMatrix": [64, 0, 0, 64],
      "AngioFlag": "N",
      "BitsAllocated": 16,
      "BitsStored": 12,
      "BodyPartExamined": "HEAD",
      "Columns": 384,
      "EchoNumbers": 1,
      "EchoTime": 33.0,
      "EchoTrainLength": 64,
      "FlipAngle": 90.0,
      "HighBit": 11,
      "ImageOrientationPatient": [0.99966802215933, 0.02097779244132, -0.0149592010596, -0.0226855846239, 0.99189391164595, -0.125027326173],
      "ImagePositionPatient": [-562.21001133069, -560.15469832551, 72.505080567359],
      "ImageType": [
        "ORIGINAL",
        "PRIMARY",
        "M",
        "ND",
        "NORM",
        "MOSAIC"
],
      "ImagedNucleus": "1H",
      "ImagingFrequency": 123.214455,
      "InPlanePhaseEncodingDirection": "COL",
      "MRAcquisitionType": "2D",
      "MagneticFieldStrength": 3.0,
      "Manufacturer": "SIEMENS",
      "ManufacturerModelName": "Skyra",
      "Modality": "MR",
      "NumberOfAverages": 1.0,
      "NumberOfPhaseEncodingSteps": 64,
      "PercentPhaseFieldOfView": 100.0,
      "PercentSampling": 100.0,
      "PerformedProcedureStepStartTime": "091629.970000",
      "PhotometricInterpretation": "MONOCHROME2",
      "PixelBandwidth": 1700.0,
      "PixelRepresentation": 0,
      "PixelSpacing": [3.0, 3.0],
      "ProtocolName": "fMRI_2",
      "RepetitionTime": 2340.0,
      "Rows": 384,
      "SAR": 0.18497751184919,
      "SamplesPerPixel": 1,
      "ScanOptions": "FS",
      "ScanningSequence": "EP",
      "SequenceName": "*epfid2d1_64",
      "SequenceVariant": "SK",
      "SeriesDescription": "fMRI_2",
      "SeriesNumber": 5,
      "SeriesTime": "092722.128000",
      "SliceLocation": -5.1409853916177,
      "SliceThickness": 3.0,
      "SmallestImagePixelValue": 0,
      "SoftwareVersions": "syngo MR D13",
      "SpacingBetweenSlices": 3.2999999458835,
      "SpecificCharacterSet": "ISO_IR 100",
      "StudyID": "1",
      "StudyTime": "091629.917000",
      "TransmitCoilName": "Body",
      "VariableFlipAngleFlag": "N",
      "WindowCenterWidthExplanation": "Algo1",
      "dBdt": 0.0},
    "slices": {}
  },
  "time": {
    "samples": {
      "AcquisitionNumber": [1, 2, 3, 4, 5, 6, 7, 8, 9, 10, 11, 12, 13, 14, 15, 16, 17, 18, 19, 20, 21, 22, 23, 24, 25, 26, 27, 28, 29, 30, 31, 32, 33, 34, 35, 36, 37, 38, 39, 40, 41, 42, 43, 44, 45, 46, 47, 48, 49, 50, 51, 52, 53, 54, 55, 56, 57, 58, 59, 60, 61, 62, 63, 64, 65, 66, 67, 68, 69, 70, 71, 72, 73, 74, 75, 76, 77, 78, 79, 80, 81, 82, 83, 84, 85, 86, 87, 88, 89, 90, 91, 92, 93, 94, 95, 96, 97, 98, 99, 100, 101, 102, 103, 104, 105, 106, 107, 108, 109, 110, 111, 112, 113, 114, 115, 116, 117, 118, 119, 120, 121, 122, 123, 124, 125, 126, 127, 128, 129, 130],
      "AcquisitionTime": ["092644.592500", "092646.932500", "092649.272500", "092651.612500", "092653.952500", "092656.292500", "092658.632500", "092700.972500", "092703.312500", "092705.652500", "092707.992500", "092710.332500", "092712.672500", "092715.012500", "092717.352500", "092719.692500", "092722.032500", "092724.372500", "092726.712500", "092729.052500", "092731.392500", "092733.732500", "092736.072500", "092738.412500", "092740.752500", "092743.092500", "092745.432500", "092747.772500", "092750.112500", "092752.452500", "092754.792500", "092757.132500", "092759.472500", "092801.812500", "092804.152500", "092806.492500", "092808.832500", "092811.172500", "092813.512500", "092815.852500", "092818.192500", "092820.532500", "092822.872500", "092825.212500", "092827.552500", "092829.892500", "092832.232500", "092834.572500", "092836.912500", "092839.252500", "092841.592500", "092843.932500", "092846.272500", "092848.612500", "092850.952500", "092853.292500", "092855.632500", "092857.972500", "092900.312500", "092902.652500", "092904.992500", "092907.332500", "092909.672500", "092912.012500", "092914.352500", "092916.692500", "092919.032500", "092921.372500", "092923.712500", "092926.052500", "092928.392500", "092930.732500", "092933.072500", "092935.412500", "092937.752500", "092940.092500", "092942.432500", "092944.772500", "092947.112500", "092949.452500", "092951.792500", "092954.132500", "092956.472500", "092958.812500", "093001.152500", "093003.492500", "093005.832500", "093008.172500", "093010.512500", "093012.852500", "093015.192500", "093017.532500", "093019.872500", "093022.212500", "093024.552500", "093026.892500", "093029.232500", "093031.572500", "093033.912500", "093036.252500", "093038.592500", "093040.932500", "093043.272500", "093045.612500", "093047.952500", "093050.292500", "093052.632500", "093054.972500", "093057.312500", "093059.652500", "093101.992500", "093104.332500", "093106.672500", "093109.012500", "093111.352500", "093113.692500", "093116.032500", "093118.372500", "093120.712500", "093123.052500", "093125.392500", "093127.732500", "093130.072500", "093132.412500", "093134.752500", "093137.092500", "093139.432500", "093141.772500", "093144.112500", "093146.452500"],
      "ContentTime": ["092722.132000", "092722.136000", "092722.139000", "092722.142000", "092722.145000", "092722.147000", "092722.150000", "092722.153000", "092722.156000", "092722.165000", "092722.167000", "092722.170000", "092722.174000", "092722.177000", "092722.179000", "092722.182000", "092822.126000", "092822.130000", "092822.133000", "092822.135000", "092822.138000", "092822.141000", "092822.144000", "092822.146000", "092822.149000", "092822.152000", "092822.154000", "092822.157000", "092822.160000", "092822.162000", "092822.165000", "092822.168000", "092822.170000", "092822.173000", "092822.185000", "092822.188000", "092822.191000", "092822.193000", "092822.196000", "092822.198000", "092822.201000", "092822.204000", "092922.127000", "092922.131000", "092922.134000", "092922.136000", "092922.139000", "092922.142000", "092922.145000", "092922.147000", "092922.150000", "092922.153000", "092922.155000", "092922.158000", "092922.161000", "092922.163000", "092922.166000", "092922.169000", "092922.172000", "092922.174000", "092922.177000", "092922.180000", "092922.183000", "092922.185000", "092922.188000", "092922.191000", "092922.193000", "092922.196000", "093022.126000", "093022.129000", "093022.132000", "093022.135000", "093022.152000", "093022.155000", "093022.158000", "093022.161000", "093022.164000", "093022.167000", "093022.169000", "093022.172000", "093022.175000", "093022.178000", "093022.181000", "093022.184000", "093022.187000", "093022.190000", "093022.192000", "093022.196000", "093022.199000", "093022.201000", "093022.204000", "093022.207000", "093022.210000", "093122.127000", "093122.131000", "093122.133000", "093122.136000", "093122.139000", "093122.141000", "093122.144000", "093122.146000", "093122.149000", "093122.152000", "093122.154000", "093122.157000", "093122.160000", "093122.162000", "093122.165000", "093122.168000", "093122.170000", "093122.173000", "093122.175000", "093122.178000", "093122.181000", "093122.183000", "093122.186000", "093122.188000", "093122.191000", "093122.194000", "093146.921000", "093146.924000", "093146.927000", "093146.929000", "093146.932000", "093146.935000", "093146.938000", "093146.941000", "093146.944000", "093146.947000", "093146.950000"],
      "InstanceCreationTime": ["092722.132000", "092722.136000", "092722.139000", "092722.142000", "092722.145000", "092722.147000", "092722.150000", "092722.153000", "092722.156000", "092722.165000", "092722.167000", "092722.170000", "092722.174000", "092722.177000", "092722.179000", "092722.182000", "092822.126000", "092822.130000", "092822.133000", "092822.135000", "092822.138000", "092822.141000", "092822.144000", "092822.146000", "092822.149000", "092822.152000", "092822.154000", "092822.157000", "092822.160000", "092822.162000", "092822.165000", "092822.168000", "092822.170000", "092822.173000", "092822.185000", "092822.188000", "092822.191000", "092822.193000", "092822.196000", "092822.198000", "092822.201000", "092822.204000", "092922.127000", "092922.131000", "092922.134000", "092922.136000", "092922.139000", "092922.142000", "092922.145000", "092922.147000", "092922.150000", "092922.153000", "092922.155000", "092922.158000", "092922.161000", "092922.163000", "092922.166000", "092922.169000", "092922.172000", "092922.174000", "092922.177000", "092922.180000", "092922.183000", "092922.185000", "092922.188000", "092922.191000", "092922.193000", "092922.196000", "093022.126000", "093022.129000", "093022.132000", "093022.135000", "093022.152000", "093022.155000", "093022.158000", "093022.161000", "093022.164000", "093022.167000", "093022.169000", "093022.172000", "093022.175000", "093022.178000", "093022.181000", "093022.184000", "093022.187000", "093022.190000", "093022.192000", "093022.196000", "093022.199000", "093022.201000", "093022.204000", "093022.207000", "093022.210000", "093122.127000", "093122.131000", "093122.133000", "093122.136000", "093122.139000", "093122.141000", "093122.144000", "093122.146000", "093122.149000", "093122.152000", "093122.154000", "093122.157000", "093122.160000", "093122.162000", "093122.165000", "093122.168000", "093122.170000", "093122.173000", "093122.175000", "093122.178000", "093122.181000", "093122.183000", "093122.186000", "093122.188000", "093122.191000", "093122.194000", "093146.921000", "093146.924000", "093146.927000", "093146.929000", "093146.932000", "093146.935000", "093146.938000", "093146.941000", "093146.944000", "093146.947000", "093146.950000"],
      "InstanceNumber": [1, 2, 3, 4, 5, 6, 7, 8, 9, 10, 11, 12, 13, 14, 15, 16, 17, 18, 19, 20, 21, 22, 23, 24, 25, 26, 27, 28, 29, 30, 31, 32, 33, 34, 35, 36, 37, 38, 39, 40, 41, 42, 43, 44, 45, 46, 47, 48, 49, 50, 51, 52, 53, 54, 55, 56, 57, 58, 59, 60, 61, 62, 63, 64, 65, 66, 67, 68, 69, 70, 71, 72, 73, 74, 75, 76, 77, 78, 79, 80, 81, 82, 83, 84, 85, 86, 87, 88, 89, 90, 91, 92, 93, 94, 95, 96, 97, 98, 99, 100, 101, 102, 103, 104, 105, 106, 107, 108, 109, 110, 111, 112, 113, 114, 115, 116, 117, 118, 119, 120, 121, 122, 123, 124, 125, 126, 127, 128, 129, 130],
      "LargestImagePixelValue": [3151, 2995, 2889, 3041, 2943, 1879, 1914, 1938, 2819, 1884, 1749, 2279, 2969, 1761, 2125, 3192, 3439, 1863, 1948, 1856, 1828, 1930, 1902, 1978, 2883, 2641, 1868, 1879, 1913, 1900, 1854, 1837, 1810, 1744, 1759, 1854, 2796, 2311, 2017, 1844, 2981, 3077, 1863, 1934, 2133, 3151, 1881, 1882, 2766, 1845, 1864, 2418, 1832, 1821, 1886, 1909, 1921, 1828, 1839, 2653, 2093, 1885, 1825, 1782, 1883, 1842, 1843, 2747, 1877, 2134, 2149, 1825, 1895, 2645, 1840, 1965, 2143, 1870, 1832, 3052, 2948, 1847, 1824, 1891, 1912, 1863, 1911, 1888, 2467, 2971, 1813, 2618, 2388, 1845, 3209, 3304, 2586, 1952, 1851, 1885, 1744, 1879, 1904, 1878, 1831, 1752, 1888, 1902, 2757, 2146, 2574, 1951, 1844, 2476, 1869, 1877, 3075, 2423, 1801, 2285, 1915, 1994, 2051, 2583, 1813, 2201, 2877, 1909, 1943, 1906],
      "WindowCenter": [822.0, 820.0, 821.0, 821.0, 820.0, 821.0, 820.0, 820.0, 821.0, 821.0, 822.0, 822.0, 818.0, 821.0, 822.0, 820.0, 818.0, 816.0, 820.0, 820.0, 820.0, 821.0, 820.0, 824.0, 821.0, 817.0, 817.0, 819.0, 819.0, 820.0, 821.0, 820.0, 822.0, 821.0, 820.0, 818.0, 818.0, 817.0, 815.0, 821.0, 821.0, 818.0, 815.0, 821.0, 817.0, 819.0, 816.0, 816.0, 815.0, 815.0, 818.0, 822.0, 822.0, 822.0, 822.0, 819.0, 820.0, 821.0, 820.0, 822.0, 820.0, 821.0, 820.0, 823.0, 822.0, 824.0, 823.0, 824.0, 820.0, 823.0, 824.0, 822.0, 823.0, 823.0, 824.0, 831.0, 828.0, 826.0, 824.0, 824.0, 820.0, 820.0, 821.0, 824.0, 824.0, 826.0, 824.0, 828.0, 828.0, 825.0, 823.0, 825.0, 825.0, 826.0, 825.0, 823.0, 821.0, 820.0, 822.0, 824.0, 824.0, 825.0, 824.0, 826.0, 825.0, 825.0, 823.0, 822.0, 825.0, 820.0, 823.0, 824.0, 822.0, 825.0, 824.0, 820.0, 825.0, 819.0, 817.0, 824.0, 819.0, 821.0, 824.0, 824.0, 821.0, 822.0, 821.0, 820.0, 821.0, 823.0],
      "WindowWidth": [1762.0, 1759.0, 1761.0, 1760.0, 1758.0, 1759.0, 1757.0, 1757.0, 1759.0, 1759.0, 1761.0, 1761.0, 1752.0, 1758.0, 1761.0, 1759.0, 1753.0, 1745.0, 1754.0, 1756.0, 1754.0, 1757.0, 1756.0, 1766.0, 1760.0, 1750.0, 1749.0, 1752.0, 1753.0, 1758.0, 1758.0, 1756.0, 1761.0, 1755.0, 1752.0, 1750.0, 1754.0, 1746.0, 1744.0, 1761.0, 1760.0, 1750.0, 1744.0, 1760.0, 1750.0, 1753.0, 1745.0, 1745.0, 1745.0, 1742.0, 1747.0, 1762.0, 1759.0, 1761.0, 1759.0, 1753.0, 1759.0, 1759.0, 1757.0, 1763.0, 1754.0, 1756.0, 1756.0, 1761.0, 1758.0, 1765.0, 1763.0, 1766.0, 1756.0, 1767.0, 1764.0, 1761.0, 1764.0, 1766.0, 1763.0, 1784.0, 1778.0, 1769.0, 1767.0, 1766.0, 1755.0, 1757.0, 1760.0, 1766.0, 1764.0, 1771.0, 1764.0, 1777.0, 1777.0, 1770.0, 1764.0, 1770.0, 1768.0, 1771.0, 1771.0, 1764.0, 1758.0, 1758.0, 1762.0, 1766.0, 1767.0, 1768.0, 1768.0, 1771.0, 1770.0, 1769.0, 1767.0, 1761.0, 1769.0, 1754.0, 1759.0, 1766.0, 1762.0, 1772.0, 1763.0, 1762.0, 1772.0, 1753.0, 1747.0, 1766.0, 1753.0, 1760.0, 1763.0, 1768.0, 1758.0, 1763.0, 1759.0, 1755.0, 1759.0, 1762.0]
    },
    "slices": {}
  }
}