{
  "AcquisitionMatrixPE": 64,
  "AcquisitionNumber": 1,
  "AcquisitionTime": "08:59:23.970000",
  "BandwidthPerPixelPhaseEncode": 24.038,
  "BaseResolution": 64,
  "BodyPartExamined": "HEAD",
  "ConsistencyInfo": "N4_VD13A_LATEST_20120616",
  "ConversionSoftware": "dcm2niix",
  "ConversionSoftwareVersion": "v1.0.20181125  GCC6.3.0",
  "DerivedVendorReportedEchoSpacing": 0.000650012,
  "DeviceSerialNumber": "45250",
  "DwellTime": 4.6e-06,
  "EchoTime": 0.033,
  "EchoTrainLength": 64,
  "EffectiveEchoSpacing": 0.000650012,
  "FlipAngle": 90,
  "ImageOrientationPatientDICOM": [0.997772, -0.0464562, -0.0478814, 0.0435637, 0.997261, -0.0597801],
  "ImageType": [
    "ORIGINAL",
    "PRIMARY",
    "M",
    "ND",
    "NORM",
    "MOSAIC"
],
  "ImagingFrequency": 123.214,
  "InPlanePhaseEncodingDirectionDICOM": "COL",
  "InstitutionAddress": "Kopernikusstr._26_Graz_Graz_AT_8010",
  "InstitutionName": "KFU",
  "InstitutionalDepartmentName": "Department",
  "MRAcquisitionType": "2D",
  "MagneticFieldStrength": 3,
  "Manufacturer": "Siemens",
  "ManufacturersModelName": "Skyra",
  "Modality": "MR",
  "PartialFourier": 1,
  "PatientPosition": "HFS",
  "PercentPhaseFOV": 100,
  "PhaseEncodingDirection": "j-",
  "PhaseEncodingSteps": 64,
  "PhaseResolution": 1,
  "PixelBandwidth": 1700,
  "ProcedureStepDescription": "KFU_Entw-Psy",
  "ProtocolName": "fMRI_1",
  "PulseSequenceDetails": "%SiemensSeq%_ep2d_pace",
  "ReceiveCoilActiveElements": "HE1-4",
  "ReceiveCoilName": "HeadNeck_20",
  "ReconMatrixPE": 64,
  "RepetitionTime": 2.34,
  "SAR": 0.158806,
  "ScanOptions": "FS",
  "ScanningSequence": "EP",
  "SequenceName": "_epfid2d1_64",
  "SequenceVariant": "SK",
  "SeriesDescription": "fMRI_1",
  "SeriesNumber": 2,
  "ShimSetting": [-1642, -3687, -4300, 431, 433, 421, 196, -295],
  "SliceThickness": 3,
  "SliceTiming": [2.25, 2.1825, 2.115, 2.045, 1.9775, 1.91, 1.8425, 1.7725, 1.705, 1.6375, 1.5675, 1.5, 1.4325, 1.365, 1.295, 1.2275, 1.16, 1.09, 1.0225, 0.955, 0.8875, 0.8175, 0.75, 0.6825, 0.6125, 0.545, 0.4775, 0.4075, 0.34, 0.2725, 0.205, 0.135, 0.0675, 0],
  "SoftwareVersions": "syngo_MR_D13",
  "SpacingBetweenSlices": 3.3,
  "StationName": "FBMTMR1",
  "TaskName": "read",
  "TotalReadoutTime": 0.0409508,
  "TxRefAmp": 330.863,
  "dcmmeta_affine": [
    [-2.993316411972046, 0.13069094717502594, -0.1667405217885971, 91.70002746582031],
    [0.13936865329742432, 2.99178147315979, -0.18995140492916107, -115.21034240722656],
    [-0.1436443328857422, 0.17934031784534454, 3.290306329727173, -18.047441482543945],
    [0.0, 0.0, 0.0, 1.0]
],
  "dcmmeta_reorient_transform": [
    [0.0, -1.0, 0.0, 63.0],
    [1.0, 0.0, 0.0, 0.0],
    [0.0, 0.0, 1.0, 0.0],
    [0.0, 0.0, 0.0, 1.0]
],
  "dcmmeta_shape": [64, 64, 34, 129],
  "dcmmeta_slice_dim": 2,
  "dcmmeta_version": 0.6,
  "global": {
    "const": {
      "AcquisitionMatrix": [64, 0, 0, 64],
      "AngioFlag": "N",
      "BitsAllocated": 16,
      "BitsStored": 12,
      "BodyPartExamined": "HEAD",
      "Columns": 384,
      "EchoNumbers": 1,
      "EchoTime": 33.0,
      "EchoTrainLength": 64,
      "FlipAngle": 90.0,
      "HighBit": 11,
      "ImageOrientationPatient": [0.99777211182669, -0.0464562200701, -0.0478814418925, 0.04356365144666, 0.99726052114869, -0.0597801073174],
      "ImagePositionPatient": [-599.77472543311, -529.65796164066, 44.928541541667],
      "ImageType": [
        "ORIGINAL",
        "PRIMARY",
        "M",
        "ND",
        "NORM",
        "MOSAIC"
],
      "ImagedNucleus": "1H",
      "ImagingFrequency": 123.214383,
      "InPlanePhaseEncodingDirection": "COL",
      "MRAcquisitionType": "2D",
      "MagneticFieldStrength": 3.0,
      "Manufacturer": "SIEMENS",
      "ManufacturerModelName": "Skyra",
      "Modality": "MR",
      "NumberOfAverages": 1.0,
      "NumberOfPhaseEncodingSteps": 64,
      "PercentPhaseFieldOfView": 100.0,
      "PercentSampling": 100.0,
      "PerformedProcedureStepStartTime": "085655.091000",
      "PhotometricInterpretation": "MONOCHROME2",
      "PixelBandwidth": 1700.0,
      "PixelRepresentation": 0,
      "PixelSpacing": [3.0, 3.0],
      "ProtocolName": "fMRI_1",
      "RepetitionTime": 2340.0,
      "Rows": 384,
      "SAR": 0.15880569706529,
      "SamplesPerPixel": 1,
      "ScanOptions": "FS",
      "ScanningSequence": "EP",
      "SequenceName": "*epfid2d1_64",
      "SequenceVariant": "SK",
      "SeriesDescription": "fMRI_1",
      "SeriesNumber": 2,
      "SeriesTime": "090014.711000",
      "SliceLocation": -15.99616913248,
      "SliceThickness": 3.0,
      "SmallestImagePixelValue": 0,
      "SoftwareVersions": "syngo MR D13",
      "SpacingBetweenSlices": 3.2999999443039,
      "SpecificCharacterSet": "ISO_IR 100",
      "StudyID": "1",
      "StudyTime": "085655.028000",
      "TransmitCoilName": "Body",
      "VariableFlipAngleFlag": "N",
      "WindowCenterWidthExplanation": "Algo1",
      "dBdt": 0.0},
    "slices": {}
  },
  "time": {
    "samples": {
      "AcquisitionNumber": [1, 2, 3, 4, 5, 6, 7, 8, 9, 10, 11, 12, 13, 14, 15, 16, 17, 18, 19, 20, 21, 22, 23, 24, 25, 26, 27, 28, 29, 30, 31, 32, 33, 34, 35, 36, 37, 38, 39, 40, 41, 42, 43, 44, 45, 46, 47, 48, 49, 50, 51, 52, 53, 54, 55, 56, 57, 58, 59, 60, 61, 62, 63, 64, 65, 66, 67, 68, 69, 70, 71, 72, 73, 74, 75, 76, 77, 78, 79, 80, 81, 82, 83, 84, 85, 86, 87, 88, 89, 90, 91, 92, 93, 94, 95, 96, 97, 98, 99, 100, 101, 102, 103, 104, 105, 106, 107, 108, 109, 110, 111, 112, 113, 114, 115, 116, 117, 118, 119, 120, 121, 122, 123, 124, 125, 126, 127, 128, 129],
      "AcquisitionTime": ["085923.970000", "085926.310000", "085928.650000", "085930.990000", "085933.330000", "085935.670000", "085938.010000", "085940.350000", "085942.690000", "085945.030000", "085947.370000", "085949.710000", "085952.050000", "085954.390000", "085956.730000", "085959.070000", "090001.410000", "090003.750000", "090006.090000", "090008.430000", "090010.770000", "090013.110000", "090015.450000", "090017.790000", "090020.130000", "090022.470000", "090024.810000", "090027.150000", "090029.490000", "090031.830000", "090034.170000", "090036.510000", "090038.850000", "090041.190000", "090043.530000", "090045.870000", "090048.210000", "090050.550000", "090052.890000", "090055.230000", "090057.570000", "090059.910000", "090102.250000", "090104.590000", "090106.930000", "090109.270000", "090111.610000", "090113.950000", "090116.290000", "090118.630000", "090120.970000", "090123.310000", "090125.650000", "090127.990000", "090130.330000", "090132.670000", "090135.010000", "090137.350000", "090139.690000", "090142.030000", "090144.370000", "090146.710000", "090149.050000", "090151.390000", "090153.730000", "090156.070000", "090158.410000", "090200.750000", "090203.090000", "090205.430000", "090207.770000", "090210.110000", "090212.450000", "090214.790000", "090217.130000", "090219.470000", "090221.810000", "090224.150000", "090226.490000", "090228.830000", "090231.170000", "090233.510000", "090235.850000", "090238.190000", "090240.530000", "090242.870000", "090245.210000", "090247.550000", "090249.890000", "090252.230000", "090254.570000", "090256.910000", "090259.250000", "090301.590000", "090303.930000", "090306.270000", "090308.610000", "090310.950000", "090313.290000", "090315.630000", "090317.970000", "090320.310000", "090322.650000", "090324.990000", "090327.330000", "090329.670000", "090332.010000", "090334.350000", "090336.690000", "090339.030000", "090341.370000", "090343.710000", "090346.050000", "090348.390000", "090350.730000", "090353.070000", "090355.410000", "090357.750000", "090400.090000", "090402.430000", "090404.770000", "090407.110000", "090409.450000", "090411.790000", "090414.130000", "090416.470000", "090418.810000", "090421.150000", "090423.490000"],
      "ContentTime": ["090014.716000", "090014.720000", "090014.723000", "090014.726000", "090014.736000", "090014.742000", "090014.744000", "090014.747000", "090014.750000", "090014.752000", "090014.755000", "090014.758000", "090014.761000", "090014.763000", "090014.766000", "090014.769000", "090014.772000", "090014.775000", "090014.778000", "090014.781000", "090014.784000", "090014.786000", "090114.696000", "090114.699000", "090114.702000", "090114.705000", "090114.707000", "090114.710000", "090114.713000", "090114.716000", "090114.719000", "090114.722000", "090114.725000", "090114.728000", "090114.730000", "090114.733000", "090114.745000", "090114.748000", "090114.750000", "090114.753000", "090114.756000", "090114.758000", "090114.761000", "090114.764000", "090114.767000", "090114.770000", "090114.773000", "090214.695000", "090214.698000", "090214.701000", "090214.704000", "090214.707000", "090214.709000", "090214.712000", "090214.715000", "090214.717000", "090214.720000", "090214.723000", "090214.725000", "090214.728000", "090214.730000", "090214.737000", "090214.740000", "090214.742000", "090214.745000", "090214.748000", "090214.751000", "090214.754000", "090214.756000", "090214.759000", "090214.762000", "090214.764000", "090214.767000", "090314.697000", "090314.700000", "090314.703000", "090314.709000", "090314.712000", "090314.714000", "090314.717000", "090314.719000", "090314.722000", "090314.725000", "090314.728000", "090314.730000", "090314.733000", "090314.736000", "090314.739000", "090314.742000", "090314.744000", "090314.747000", "090314.749000", "090314.752000", "090314.755000", "090314.757000", "090314.760000", "090314.763000", "090314.765000", "090314.768000", "090414.695000", "090414.698000", "090414.701000", "090414.704000", "090414.707000", "090414.710000", "090414.712000", "090414.715000", "090414.718000", "090414.721000", "090414.723000", "090414.726000", "090414.729000", "090414.732000", "090414.735000", "090414.737000", "090414.740000", "090414.743000", "090414.746000", "090414.749000", "090414.751000", "090414.754000", "090414.757000", "090414.759000", "090414.762000", "090425.729000", "090425.732000", "090425.735000", "090425.738000", "090425.741000"],
      "InstanceCreationTime": ["090014.716000", "090014.720000", "090014.723000", "090014.726000", "090014.736000", "090014.742000", "090014.744000", "090014.747000", "090014.750000", "090014.752000", "090014.755000", "090014.758000", "090014.761000", "090014.763000", "090014.766000", "090014.769000", "090014.772000", "090014.775000", "090014.778000", "090014.781000", "090014.784000", "090014.786000", "090114.696000", "090114.699000", "090114.702000", "090114.705000", "090114.707000", "090114.710000", "090114.713000", "090114.716000", "090114.719000", "090114.722000", "090114.725000", "090114.728000", "090114.730000", "090114.733000", "090114.745000", "090114.748000", "090114.750000", "090114.753000", "090114.756000", "090114.758000", "090114.761000", "090114.764000", "090114.767000", "090114.770000", "090114.773000", "090214.695000", "090214.698000", "090214.701000", "090214.704000", "090214.707000", "090214.709000", "090214.712000", "090214.715000", "090214.717000", "090214.720000", "090214.723000", "090214.725000", "090214.728000", "090214.730000", "090214.737000", "090214.740000", "090214.742000", "090214.745000", "090214.748000", "090214.751000", "090214.754000", "090214.756000", "090214.759000", "090214.762000", "090214.764000", "090214.767000", "090314.697000", "090314.700000", "090314.703000", "090314.709000", "090314.712000", "090314.714000", "090314.717000", "090314.719000", "090314.722000", "090314.725000", "090314.728000", "090314.730000", "090314.733000", "090314.736000", "090314.739000", "090314.742000", "090314.744000", "090314.747000", "090314.749000", "090314.752000", "090314.755000", "090314.757000", "090314.760000", "090314.763000", "090314.765000", "090314.768000", "090414.695000", "090414.698000", "090414.701000", "090414.704000", "090414.707000", "090414.710000", "090414.712000", "090414.715000", "090414.718000", "090414.721000", "090414.723000", "090414.726000", "090414.729000", "090414.732000", "090414.735000", "090414.737000", "090414.740000", "090414.743000", "090414.746000", "090414.749000", "090414.751000", "090414.754000", "090414.757000", "090414.759000", "090414.762000", "090425.729000", "090425.732000", "090425.735000", "090425.738000", "090425.741000"],
      "InstanceNumber": [1, 2, 3, 4, 5, 6, 7, 8, 9, 10, 11, 12, 13, 14, 15, 16, 17, 18, 19, 20, 21, 22, 23, 24, 25, 26, 27, 28, 29, 30, 31, 32, 33, 34, 35, 36, 37, 38, 39, 40, 41, 42, 43, 44, 45, 46, 47, 48, 49, 50, 51, 52, 53, 54, 55, 56, 57, 58, 59, 60, 61, 62, 63, 64, 65, 66, 67, 68, 69, 70, 71, 72, 73, 74, 75, 76, 77, 78, 79, 80, 81, 82, 83, 84, 85, 86, 87, 88, 89, 90, 91, 92, 93, 94, 95, 96, 97, 98, 99, 100, 101, 102, 103, 104, 105, 106, 107, 108, 109, 110, 111, 112, 113, 114, 115, 116, 117, 118, 119, 120, 121, 122, 123, 124, 125, 126, 127, 128, 129],
      "LargestImagePixelValue": [1853, 2075, 1869, 2294, 2040, 1799, 2300, 1859, 2544, 1921, 2181, 2221, 1809, 2391, 2488, 1824, 1667, 3391, 2933, 1863, 1698, 2326, 1714, 1749, 2260, 2258, 1728, 1956, 2130, 1859, 1791, 2862, 1784, 1724, 3151, 2490, 1785, 1902, 1914, 2061, 2649, 2798, 1727, 2768, 1883, 1940, 1795, 1732, 2834, 1793, 1727, 1714, 2540, 1748, 1707, 1802, 1719, 1841, 2888, 2014, 1747, 1744, 2495, 1750, 2634, 2641, 2193, 3034, 2049, 1730, 2594, 2484, 1754, 2236, 2806, 1723, 2155, 1816, 1738, 3134, 1882, 1767, 2241, 1762, 1868, 2295, 1748, 2377, 1904, 2633, 3148, 3293, 1783, 1749, 2447, 2459, 2845, 2536, 2657, 1968, 2426, 1737, 1760, 2342, 3133, 3374, 2607, 1858, 1742, 2111, 1746, 2004, 2204, 2868, 3153, 1963, 1711, 1813, 3030, 2345, 1821, 1782, 2323, 2177, 1786, 2047, 1725, 1796, 1761],
      "WindowCenter": [806.0, 807.0, 806.0, 806.0, 809.0, 805.0, 807.0, 808.0, 805.0, 804.0, 804.0, 806.0, 801.0, 805.0, 801.0, 802.0, 802.0, 803.0, 799.0, 797.0, 797.0, 804.0, 801.0, 805.0, 805.0, 806.0, 804.0, 810.0, 808.0, 807.0, 806.0, 808.0, 806.0, 806.0, 806.0, 805.0, 801.0, 808.0, 806.0, 805.0, 807.0, 804.0, 798.0, 806.0, 804.0, 806.0, 807.0, 805.0, 806.0, 803.0, 801.0, 801.0, 803.0, 803.0, 804.0, 808.0, 805.0, 807.0, 809.0, 808.0, 804.0, 807.0, 805.0, 803.0, 807.0, 808.0, 804.0, 802.0, 801.0, 802.0, 804.0, 798.0, 796.0, 802.0, 802.0, 803.0, 801.0, 804.0, 802.0, 804.0, 804.0, 802.0, 802.0, 803.0, 804.0, 810.0, 808.0, 809.0, 811.0, 809.0, 805.0, 807.0, 805.0, 806.0, 808.0, 809.0, 804.0, 804.0, 804.0, 798.0, 801.0, 800.0, 800.0, 804.0, 798.0, 795.0, 791.0, 799.0, 797.0, 802.0, 803.0, 804.0, 806.0, 802.0, 800.0, 803.0, 798.0, 801.0, 801.0, 805.0, 799.0, 806.0, 804.0, 801.0, 800.0, 801.0, 799.0, 803.0, 802.0],
      "WindowWidth": [1682.0, 1685.0, 1682.0, 1682.0, 1687.0, 1679.0, 1684.0, 1686.0, 1681.0, 1678.0, 1678.0, 1681.0, 1669.0, 1680.0, 1672.0, 1676.0, 1673.0, 1678.0, 1664.0, 1663.0, 1663.0, 1676.0, 1670.0, 1681.0, 1683.0, 1680.0, 1674.0, 1692.0, 1687.0, 1684.0, 1681.0, 1687.0, 1683.0, 1682.0, 1683.0, 1680.0, 1669.0, 1685.0, 1679.0, 1687.0, 1689.0, 1674.0, 1660.0, 1687.0, 1678.0, 1683.0, 1683.0, 1679.0, 1683.0, 1675.0, 1671.0, 1671.0, 1678.0, 1673.0, 1677.0, 1690.0, 1680.0, 1684.0, 1690.0, 1687.0, 1678.0, 1685.0, 1680.0, 1675.0, 1685.0, 1692.0, 1677.0, 1674.0, 1672.0, 1677.0, 1679.0, 1662.0, 1659.0, 1671.0, 1674.0, 1671.0, 1666.0, 1679.0, 1676.0, 1683.0, 1674.0, 1671.0, 1673.0, 1676.0, 1678.0, 1690.0, 1686.0, 1695.0, 1696.0, 1690.0, 1681.0, 1688.0, 1681.0, 1682.0, 1690.0, 1686.0, 1678.0, 1679.0, 1681.0, 1669.0, 1674.0, 1665.0, 1669.0, 1681.0, 1669.0, 1654.0, 1640.0, 1667.0, 1662.0, 1671.0, 1677.0, 1682.0, 1682.0, 1674.0, 1669.0, 1679.0, 1667.0, 1672.0, 1675.0, 1677.0, 1666.0, 1684.0, 1678.0, 1673.0, 1669.0, 1672.0, 1665.0, 1676.0, 1672.0]
    },
    "slices": {}
  }
}