{
  "AcquisitionMatrixPE": 64,
  "AcquisitionNumber": 1,
  "AcquisitionTime": "12:42:50.855000",
  "BandwidthPerPixelPhaseEncode": 24.038,
  "BaseResolution": 64,
  "BodyPartExamined": "HEAD",
  "ConsistencyInfo": "N4_VD13A_LATEST_20120616",
  "ConversionSoftware": "dcm2niix",
  "ConversionSoftwareVersion": "v1.0.20181125  GCC6.3.0",
  "DerivedVendorReportedEchoSpacing": 0.000650012,
  "DeviceSerialNumber": "45250",
  "DwellTime": 4.6e-06,
  "EchoTime": 0.033,
  "EchoTrainLength": 64,
  "EffectiveEchoSpacing": 0.000650012,
  "FlipAngle": 90,
  "ImageOrientationPatientDICOM": [0.999919, -0.00545888, -0.0114714, 0.00349041, 0.986272, -0.16509],
  "ImageType": [
    "ORIGINAL",
    "PRIMARY",
    "M",
    "ND",
    "NORM",
    "MOSAIC"
],
  "ImagingFrequency": 123.215,
  "InPlanePhaseEncodingDirectionDICOM": "COL",
  "InstitutionAddress": "Kopernikusstr._26_Graz_Graz_AT_8010",
  "InstitutionName": "KFU",
  "InstitutionalDepartmentName": "Department",
  "MRAcquisitionType": "2D",
  "MagneticFieldStrength": 3,
  "Manufacturer": "Siemens",
  "ManufacturersModelName": "Skyra",
  "Modality": "MR",
  "PartialFourier": 1,
  "PatientPosition": "HFS",
  "PercentPhaseFOV": 100,
  "PhaseEncodingDirection": "j-",
  "PhaseEncodingSteps": 64,
  "PhaseResolution": 1,
  "PixelBandwidth": 1700,
  "ProcedureStepDescription": "KFU_Entw-Psy",
  "ProtocolName": "fMRI_3",
  "PulseSequenceDetails": "%SiemensSeq%_ep2d_pace",
  "ReceiveCoilActiveElements": "HE1-4",
  "ReceiveCoilName": "HeadNeck_20",
  "ReconMatrixPE": 64,
  "RepetitionTime": 2.34,
  "SAR": 0.141766,
  "ScanOptions": "FS",
  "ScanningSequence": "EP",
  "SequenceName": "_epfid2d1_64",
  "SequenceVariant": "SK",
  "SeriesDescription": "fMRI_3",
  "SeriesNumber": 8,
  "ShimSetting": [-1522, -3764, -4430, 458, 744, 7, 303, -91],
  "SliceThickness": 3,
  "SliceTiming": [2.2525, 2.185, 2.115, 2.0475, 1.98, 1.91, 1.8425, 1.775, 1.7075, 1.6375, 1.57, 1.5025, 1.4325, 1.365, 1.2975, 1.23, 1.16, 1.0925, 1.025, 0.955, 0.8875, 0.82, 0.75, 0.6825, 0.615, 0.5475, 0.4775, 0.41, 0.3425, 0.2725, 0.205, 0.1375, 0.07, 0],
  "SoftwareVersions": "syngo_MR_D13",
  "SpacingBetweenSlices": 3.3,
  "StationName": "FBMTMR1",
  "TaskName": "read",
  "TotalReadoutTime": 0.0409508,
  "TxRefAmp": 342.741,
  "dcmmeta_affine": [
    [-2.999758005142212, 0.010471217334270477, -0.04030996188521385, 91.01737213134766],
    [0.01637662760913372, 2.9588170051574707, -0.54462069272995, -114.39350128173828],
    [-0.03441423177719116, 0.4952698051929474, 3.2544989585876465, -39.980979919433594],
    [0.0, 0.0, 0.0, 1.0]
],
  "dcmmeta_reorient_transform": [
    [0.0, -1.0, 0.0, 63.0],
    [1.0, 0.0, 0.0, 0.0],
    [0.0, 0.0, 1.0, 0.0],
    [0.0, 0.0, 0.0, 1.0]
],
  "dcmmeta_shape": [64, 64, 34, 123],
  "dcmmeta_slice_dim": 2,
  "dcmmeta_version": 0.6,
  "global": {
    "const": {
      "AcquisitionMatrix": [64, 0, 0, 64],
      "AngioFlag": "N",
      "BitsAllocated": 16,
      "BitsStored": 12,
      "BodyPartExamined": "HEAD",
      "Columns": 384,
      "EchoNumbers": 1,
      "EchoTime": 33.0,
      "EchoTrainLength": 64,
      "FlipAngle": 90.0,
      "HighBit": 11,
      "ImageOrientationPatient": [0.99991930045445, -0.0054588759426, -0.0114714102065, 0.00349040564939, 0.98627234071308, -0.1650899361341],
      "ImagePositionPatient": [-573.3137140549, -542.80243563637, 75.970465100312],
      "ImageType": [
        "ORIGINAL",
        "PRIMARY",
        "M",
        "ND",
        "NORM",
        "MOSAIC"
],
      "ImagedNucleus": "1H",
      "ImagingFrequency": 123.214535,
      "InPlanePhaseEncodingDirection": "COL",
      "MRAcquisitionType": "2D",
      "MagneticFieldStrength": 3.0,
      "Manufacturer": "SIEMENS",
      "ManufacturerModelName": "Skyra",
      "Modality": "MR",
      "NumberOfAverages": 1.0,
      "NumberOfPhaseEncodingSteps": 64,
      "PercentPhaseFieldOfView": 100.0,
      "PercentSampling": 100.0,
      "PerformedProcedureStepStartTime": "122431.686000",
      "PhotometricInterpretation": "MONOCHROME2",
      "PixelBandwidth": 1700.0,
      "PixelRepresentation": 0,
      "PixelSpacing": [3.0, 3.0],
      "ProtocolName": "fMRI_3",
      "RepetitionTime": 2340.0,
      "Rows": 384,
      "SAR": 0.14176618156405,
      "SamplesPerPixel": 1,
      "ScanOptions": "FS",
      "ScanningSequence": "EP",
      "SequenceName": "*epfid2d1_64",
      "SequenceVariant": "SK",
      "SeriesDescription": "fMRI_3",
      "SeriesNumber": 8,
      "SeriesTime": "124344.526000",
      "SliceLocation": -21.662392094528,
      "SliceThickness": 3.0,
      "SmallestImagePixelValue": 0,
      "SoftwareVersions": "syngo MR D13",
      "SpacingBetweenSlices": 3.2999999659879,
      "SpecificCharacterSet": "ISO_IR 100",
      "StudyID": "1",
      "StudyTime": "122431.643000",
      "TransmitCoilName": "Body",
      "VariableFlipAngleFlag": "N",
      "WindowCenterWidthExplanation": "Algo1",
      "dBdt": 0.0},
    "slices": {}
  },
  "time": {
    "samples": {
      "AcquisitionNumber": [1, 2, 3, 4, 5, 6, 7, 8, 9, 10, 11, 12, 13, 14, 15, 16, 17, 18, 19, 20, 21, 22, 23, 24, 25, 26, 27, 28, 29, 30, 31, 32, 33, 34, 35, 36, 37, 38, 39, 40, 41, 42, 43, 44, 45, 46, 47, 48, 49, 50, 51, 52, 53, 54, 55, 56, 57, 58, 59, 60, 61, 62, 63, 64, 65, 66, 67, 68, 69, 70, 71, 72, 73, 74, 75, 76, 77, 78, 79, 80, 81, 82, 83, 84, 85, 86, 87, 88, 89, 90, 91, 92, 93, 94, 95, 96, 97, 98, 99, 100, 101, 102, 103, 104, 105, 106, 107, 108, 109, 110, 111, 112, 113, 114, 115, 116, 117, 118, 119, 120, 121, 122, 123],
      "AcquisitionTime": ["124250.855000", "124253.195000", "124255.535000", "124257.875000", "124300.215000", "124302.555000", "124304.895000", "124307.235000", "124309.575000", "124311.915000", "124314.255000", "124316.595000", "124318.935000", "124321.275000", "124323.615000", "124325.955000", "124328.295000", "124330.635000", "124332.975000", "124335.315000", "124337.655000", "124339.995000", "124342.335000", "124344.675000", "124347.015000", "124349.355000", "124351.695000", "124354.035000", "124356.375000", "124358.715000", "124401.055000", "124403.395000", "124405.735000", "124408.075000", "124410.415000", "124412.755000", "124415.095000", "124417.435000", "124419.775000", "124422.115000", "124424.455000", "124426.795000", "124429.135000", "124431.475000", "124433.815000", "124436.155000", "124438.495000", "124440.835000", "124443.175000", "124445.515000", "124447.855000", "124450.195000", "124452.535000", "124454.875000", "124457.215000", "124459.555000", "124501.895000", "124504.235000", "124506.575000", "124508.915000", "124511.255000", "124513.595000", "124515.935000", "124518.275000", "124520.615000", "124522.955000", "124525.295000", "124527.635000", "124529.975000", "124532.315000", "124534.655000", "124536.995000", "124539.335000", "124541.675000", "124544.015000", "124546.355000", "124548.695000", "124551.035000", "124553.375000", "124555.715000", "124558.055000", "124600.395000", "124602.735000", "124605.075000", "124607.415000", "124609.755000", "124612.095000", "124614.435000", "124616.775000", "124619.115000", "124621.455000", "124623.795000", "124626.135000", "124628.475000", "124630.815000", "124633.155000", "124635.495000", "124637.835000", "124640.175000", "124642.515000", "124644.855000", "124647.195000", "124649.535000", "124651.875000", "124654.215000", "124656.555000", "124658.895000", "124701.235000", "124703.575000", "124705.915000", "124708.255000", "124710.595000", "124712.935000", "124715.275000", "124717.615000", "124719.955000", "124722.295000", "124724.635000", "124726.975000", "124729.315000", "124731.655000", "124733.995000", "124736.335000"],
      "ContentTime": ["124344.531000", "124344.534000", "124344.537000", "124344.547000", "124344.550000", "124344.553000", "124344.555000", "124344.558000", "124344.561000", "124344.564000", "124344.567000", "124344.569000", "124344.572000", "124344.575000", "124344.578000", "124344.580000", "124344.583000", "124344.586000", "124344.593000", "124344.596000", "124344.599000", "124344.602000", "124344.604000", "124424.525000", "124424.529000", "124424.531000", "124424.543000", "124424.546000", "124424.549000", "124424.552000", "124424.555000", "124424.558000", "124424.560000", "124424.563000", "124424.566000", "124424.569000", "124424.572000", "124424.574000", "124424.577000", "124424.580000", "124524.525000", "124524.529000", "124524.532000", "124524.534000", "124524.537000", "124524.540000", "124524.543000", "124524.546000", "124524.549000", "124524.552000", "124524.555000", "124524.557000", "124524.560000", "124524.563000", "124524.566000", "124524.568000", "124524.571000", "124524.574000", "124524.577000", "124524.580000", "124524.582000", "124524.585000", "124524.588000", "124524.591000", "124524.593000", "124524.596000", "124624.525000", "124624.529000", "124624.532000", "124624.535000", "124624.546000", "124624.549000", "124624.552000", "124624.555000", "124624.558000", "124624.561000", "124624.564000", "124624.566000", "124624.569000", "124624.572000", "124624.575000", "124624.582000", "124624.585000", "124624.588000", "124624.591000", "124624.593000", "124624.596000", "124624.599000", "124624.602000", "124624.605000", "124624.608000", "124724.525000", "124724.529000", "124724.539000", "124724.541000", "124724.544000", "124724.547000", "124724.550000", "124724.553000", "124724.556000", "124724.559000", "124724.562000", "124724.565000", "124724.567000", "124724.570000", "124724.573000", "124724.576000", "124724.579000", "124724.582000", "124724.585000", "124724.587000", "124724.590000", "124724.593000", "124724.596000", "124724.598000", "124724.601000", "124724.604000", "124739.744000", "124739.748000", "124739.759000", "124739.762000", "124739.766000", "124739.768000"],
      "InstanceCreationTime": ["124344.531000", "124344.534000", "124344.537000", "124344.547000", "124344.550000", "124344.553000", "124344.555000", "124344.558000", "124344.561000", "124344.564000", "124344.567000", "124344.569000", "124344.572000", "124344.575000", "124344.578000", "124344.580000", "124344.583000", "124344.586000", "124344.593000", "124344.596000", "124344.599000", "124344.602000", "124344.604000", "124424.525000", "124424.529000", "124424.531000", "124424.543000", "124424.546000", "124424.549000", "124424.552000", "124424.555000", "124424.558000", "124424.560000", "124424.563000", "124424.566000", "124424.569000", "124424.572000", "124424.574000", "124424.577000", "124424.580000", "124524.525000", "124524.529000", "124524.532000", "124524.534000", "124524.537000", "124524.540000", "124524.543000", "124524.546000", "124524.549000", "124524.552000", "124524.555000", "124524.557000", "124524.560000", "124524.563000", "124524.566000", "124524.568000", "124524.571000", "124524.574000", "124524.577000", "124524.580000", "124524.582000", "124524.585000", "124524.588000", "124524.591000", "124524.593000", "124524.596000", "124624.525000", "124624.529000", "124624.532000", "124624.535000", "124624.546000", "124624.549000", "124624.552000", "124624.555000", "124624.558000", "124624.561000", "124624.564000", "124624.566000", "124624.569000", "124624.572000", "124624.575000", "124624.582000", "124624.585000", "124624.588000", "124624.591000", "124624.593000", "124624.596000", "124624.599000", "124624.602000", "124624.605000", "124624.608000", "124724.525000", "124724.529000", "124724.539000", "124724.541000", "124724.544000", "124724.547000", "124724.550000", "124724.553000", "124724.556000", "124724.559000", "124724.562000", "124724.565000", "124724.567000", "124724.570000", "124724.573000", "124724.576000", "124724.579000", "124724.582000", "124724.585000", "124724.587000", "124724.590000", "124724.593000", "124724.596000", "124724.598000", "124724.601000", "124724.604000", "124739.744000", "124739.748000", "124739.759000", "124739.762000", "124739.766000", "124739.768000"],
      "InstanceNumber": [1, 2, 3, 4, 5, 6, 7, 8, 9, 10, 11, 12, 13, 14, 15, 16, 17, 18, 19, 20, 21, 22, 23, 24, 25, 26, 27, 28, 29, 30, 31, 32, 33, 34, 35, 36, 37, 38, 39, 40, 41, 42, 43, 44, 45, 46, 47, 48, 49, 50, 51, 52, 53, 54, 55, 56, 57, 58, 59, 60, 61, 62, 63, 64, 65, 66, 67, 68, 69, 70, 71, 72, 73, 74, 75, 76, 77, 78, 79, 80, 81, 82, 83, 84, 85, 86, 87, 88, 89, 90, 91, 92, 93, 94, 95, 96, 97, 98, 99, 100, 101, 102, 103, 104, 105, 106, 107, 108, 109, 110, 111, 112, 113, 114, 115, 116, 117, 118, 119, 120, 121, 122, 123],
      "LargestImagePixelValue": [1567, 1569, 1571, 1549, 1592, 2029, 1577, 2336, 1840, 1852, 1917, 1659, 1972, 1615, 1620, 2188, 1919, 1637, 1655, 1638, 2210, 1658, 1647, 1795, 1572, 1630, 2005, 1664, 1612, 2009, 1788, 1605, 1707, 1789, 2671, 1826, 2295, 2459, 2141, 1512, 1487, 1625, 2086, 2036, 1595, 2105, 1574, 1657, 1897, 1558, 1612, 1574, 2194, 2079, 2336, 1723, 1684, 1602, 1905, 2036, 1529, 1589, 1578, 1904, 1558, 1636, 1841, 1708, 1853, 1776, 1788, 2055, 1509, 2253, 1731, 1690, 1692, 2755, 1990, 2652, 2527, 1787, 2086, 1782, 1681, 1793, 1722, 1541, 1581, 2040, 1691, 1618, 1539, 1976, 1571, 1733, 1942, 2434, 1622, 1515, 1684, 1605, 1749, 1622, 2220, 1706, 1689, 1783, 1956, 1641, 1527, 1720, 2475, 1660, 2081, 1665, 1677, 1700, 1894, 2361, 1699, 1907, 1611],
      "WindowCenter": [753.0, 754.0, 754.0, 758.0, 758.0, 759.0, 757.0, 761.0, 756.0, 760.0, 757.0, 757.0, 761.0, 758.0, 759.0, 759.0, 757.0, 761.0, 759.0, 758.0, 757.0, 755.0, 759.0, 759.0, 757.0, 758.0, 757.0, 758.0, 759.0, 760.0, 757.0, 761.0, 761.0, 759.0, 762.0, 753.0, 755.0, 754.0, 751.0, 752.0, 759.0, 759.0, 758.0, 760.0, 758.0, 760.0, 757.0, 759.0, 759.0, 757.0, 759.0, 762.0, 760.0, 762.0, 758.0, 758.0, 759.0, 759.0, 762.0, 760.0, 756.0, 761.0, 759.0, 761.0, 758.0, 761.0, 763.0, 760.0, 766.0, 763.0, 762.0, 762.0, 759.0, 763.0, 759.0, 761.0, 758.0, 765.0, 760.0, 752.0, 756.0, 754.0, 754.0, 755.0, 754.0, 752.0, 754.0, 754.0, 754.0, 758.0, 756.0, 759.0, 753.0, 758.0, 754.0, 758.0, 755.0, 757.0, 754.0, 757.0, 757.0, 759.0, 761.0, 758.0, 758.0, 757.0, 757.0, 758.0, 753.0, 759.0, 758.0, 763.0, 759.0, 756.0, 759.0, 756.0, 761.0, 757.0, 761.0, 759.0, 756.0, 759.0, 756.0],
      "WindowWidth": [1588.0, 1587.0, 1585.0, 1598.0, 1598.0, 1600.0, 1594.0, 1605.0, 1592.0, 1601.0, 1595.0, 1597.0, 1605.0, 1596.0, 1599.0, 1601.0, 1595.0, 1603.0, 1599.0, 1597.0, 1596.0, 1589.0, 1598.0, 1597.0, 1594.0, 1598.0, 1596.0, 1597.0, 1600.0, 1602.0, 1597.0, 1605.0, 1605.0, 1600.0, 1609.0, 1584.0, 1592.0, 1587.0, 1580.0, 1584.0, 1600.0, 1599.0, 1597.0, 1602.0, 1597.0, 1604.0, 1595.0, 1601.0, 1600.0, 1594.0, 1600.0, 1608.0, 1603.0, 1607.0, 1598.0, 1598.0, 1601.0, 1601.0, 1608.0, 1601.0, 1591.0, 1606.0, 1599.0, 1603.0, 1597.0, 1607.0, 1610.0, 1607.0, 1617.0, 1610.0, 1607.0, 1606.0, 1600.0, 1612.0, 1600.0, 1603.0, 1602.0, 1611.0, 1601.0, 1589.0, 1592.0, 1587.0, 1587.0, 1593.0, 1591.0, 1585.0, 1591.0, 1587.0, 1584.0, 1597.0, 1589.0, 1600.0, 1587.0, 1597.0, 1588.0, 1597.0, 1591.0, 1597.0, 1586.0, 1595.0, 1594.0, 1598.0, 1604.0, 1597.0, 1598.0, 1595.0, 1595.0, 1598.0, 1587.0, 1599.0, 1595.0, 1610.0, 1599.0, 1593.0, 1599.0, 1591.0, 1603.0, 1597.0, 1603.0, 1599.0, 1593.0, 1598.0, 1592.0]
    },
    "slices": {}
  }
}