{
  "AcquisitionMatrixPE": 64,
  "AcquisitionNumber": 1,
  "AcquisitionTime": "12:36:59.412500",
  "BandwidthPerPixelPhaseEncode": 24.038,
  "BaseResolution": 64,
  "BodyPartExamined": "HEAD",
  "ConsistencyInfo": "N4_VD13A_LATEST_20120616",
  "ConversionSoftware": "dcm2niix",
  "ConversionSoftwareVersion": "v1.0.20181125  GCC6.3.0",
  "DerivedVendorReportedEchoSpacing": 0.000650012,
  "DeviceSerialNumber": "45250",
  "DwellTime": 4.6e-06,
  "EchoTime": 0.033,
  "EchoTrainLength": 64,
  "EffectiveEchoSpacing": 0.000650012,
  "FlipAngle": 90,
  "ImageOrientationPatientDICOM": [0.999919, -0.00545888, -0.0114714, 0.00349041, 0.986272, -0.16509],
  "ImageType": [
    "ORIGINAL",
    "PRIMARY",
    "M",
    "ND",
    "NORM",
    "MOSAIC"
],
  "ImagingFrequency": 123.215,
  "InPlanePhaseEncodingDirectionDICOM": "COL",
  "InstitutionAddress": "Kopernikusstr._26_Graz_Graz_AT_8010",
  "InstitutionName": "KFU",
  "InstitutionalDepartmentName": "Department",
  "MRAcquisitionType": "2D",
  "MagneticFieldStrength": 3,
  "Manufacturer": "Siemens",
  "ManufacturersModelName": "Skyra",
  "Modality": "MR",
  "PartialFourier": 1,
  "PatientPosition": "HFS",
  "PercentPhaseFOV": 100,
  "PhaseEncodingDirection": "j-",
  "PhaseEncodingSteps": 64,
  "PhaseResolution": 1,
  "PixelBandwidth": 1700,
  "ProcedureStepDescription": "KFU_Entw-Psy",
  "ProtocolName": "fMRI_2",
  "PulseSequenceDetails": "%SiemensSeq%_ep2d_pace",
  "ReceiveCoilActiveElements": "HE1-4",
  "ReceiveCoilName": "HeadNeck_20",
  "ReconMatrixPE": 64,
  "RepetitionTime": 2.34,
  "SAR": 0.141766,
  "ScanOptions": "FS",
  "ScanningSequence": "EP",
  "SequenceName": "_epfid2d1_64",
  "SequenceVariant": "SK",
  "SeriesDescription": "fMRI_2",
  "SeriesNumber": 5,
  "ShimSetting": [-1523, -3759, -4426, 458, 744, 13, 282, -93],
  "SliceThickness": 3,
  "SliceTiming": [2.2525, 2.185, 2.115, 2.0475, 1.98, 1.91, 1.8425, 1.775, 1.705, 1.6375, 1.57, 1.5025, 1.4325, 1.365, 1.2975, 1.2275, 1.16, 1.0925, 1.025, 0.955, 0.8875, 0.82, 0.75, 0.6825, 0.615, 0.545, 0.4775, 0.41, 0.3425, 0.2725, 0.205, 0.1375, 0.0675, 0],
  "SoftwareVersions": "syngo_MR_D13",
  "SpacingBetweenSlices": 3.3,
  "StationName": "FBMTMR1",
  "TaskName": "read",
  "TotalReadoutTime": 0.0409508,
  "TxRefAmp": 342.741,
  "dcmmeta_affine": [
    [-2.999758005142212, 0.010471217334270477, -0.04030996188521385, 91.01737213134766],
    [0.01637662760913372, 2.9588170051574707, -0.54462069272995, -114.39350128173828],
    [-0.03441423177719116, 0.4952698051929474, 3.2544989585876465, -42.68653869628906],
    [0.0, 0.0, 0.0, 1.0]
],
  "dcmmeta_reorient_transform": [
    [0.0, -1.0, 0.0, 63.0],
    [1.0, 0.0, 0.0, 0.0],
    [0.0, 0.0, 1.0, 0.0],
    [0.0, 0.0, 0.0, 1.0]
],
  "dcmmeta_shape": [64, 64, 34, 130],
  "dcmmeta_slice_dim": 2,
  "dcmmeta_version": 0.6,
  "global": {
    "const": {
      "AcquisitionMatrix": [64, 0, 0, 64],
      "AngioFlag": "N",
      "BitsAllocated": 16,
      "BitsStored": 12,
      "BodyPartExamined": "HEAD",
      "Columns": 384,
      "EchoNumbers": 1,
      "EchoTime": 33.0,
      "EchoTrainLength": 64,
      "FlipAngle": 90.0,
      "HighBit": 11,
      "ImageOrientationPatient": [0.99991930045445, -0.0054588759426, -0.0114714102065, 0.00349040564939, 0.98627234071308, -0.1650899361341],
      "ImagePositionPatient": [-573.3137140549, -542.80243563637, 73.264906323457],
      "ImageType": [
        "ORIGINAL",
        "PRIMARY",
        "M",
        "ND",
        "NORM",
        "MOSAIC"
],
      "ImagedNucleus": "1H",
      "ImagingFrequency": 123.214528,
      "InPlanePhaseEncodingDirection": "COL",
      "MRAcquisitionType": "2D",
      "MagneticFieldStrength": 3.0,
      "Manufacturer": "SIEMENS",
      "ManufacturerModelName": "Skyra",
      "Modality": "MR",
      "NumberOfAverages": 1.0,
      "NumberOfPhaseEncodingSteps": 64,
      "PercentPhaseFieldOfView": 100.0,
      "PercentSampling": 100.0,
      "PerformedProcedureStepStartTime": "122431.686000",
      "PhotometricInterpretation": "MONOCHROME2",
      "PixelBandwidth": 1700.0,
      "PixelRepresentation": 0,
      "PixelSpacing": [3.0, 3.0],
      "ProtocolName": "fMRI_2",
      "RepetitionTime": 2340.0,
      "Rows": 384,
      "SAR": 0.14176618156405,
      "SamplesPerPixel": 1,
      "ScanOptions": "FS",
      "ScanningSequence": "EP",
      "SequenceName": "*epfid2d1_64",
      "SequenceVariant": "SK",
      "SeriesDescription": "fMRI_2",
      "SeriesNumber": 5,
      "SeriesTime": "123752.124000",
      "SliceLocation": -24.330646093093,
      "SliceThickness": 3.0,
      "SmallestImagePixelValue": 0,
      "SoftwareVersions": "syngo MR D13",
      "SpacingBetweenSlices": 3.2999999659879,
      "SpecificCharacterSet": "ISO_IR 100",
      "StudyID": "1",
      "StudyTime": "122431.643000",
      "TransmitCoilName": "Body",
      "VariableFlipAngleFlag": "N",
      "WindowCenterWidthExplanation": "Algo1",
      "dBdt": 0.0},
    "slices": {}
  },
  "time": {
    "samples": {
      "AcquisitionNumber": [1, 2, 3, 4, 5, 6, 7, 8, 9, 10, 11, 12, 13, 14, 15, 16, 17, 18, 19, 20, 21, 22, 23, 24, 25, 26, 27, 28, 29, 30, 31, 32, 33, 34, 35, 36, 37, 38, 39, 40, 41, 42, 43, 44, 45, 46, 47, 48, 49, 50, 51, 52, 53, 54, 55, 56, 57, 58, 59, 60, 61, 62, 63, 64, 65, 66, 67, 68, 69, 70, 71, 72, 73, 74, 75, 76, 77, 78, 79, 80, 81, 82, 83, 84, 85, 86, 87, 88, 89, 90, 91, 92, 93, 94, 95, 96, 97, 98, 99, 100, 101, 102, 103, 104, 105, 106, 107, 108, 109, 110, 111, 112, 113, 114, 115, 116, 117, 118, 119, 120, 121, 122, 123, 124, 125, 126, 127, 128, 129, 130],
      "AcquisitionTime": ["123659.412500", "123701.752500", "123704.092500", "123706.432500", "123708.772500", "123711.112500", "123713.452500", "123715.792500", "123718.132500", "123720.472500", "123722.812500", "123725.152500", "123727.492500", "123729.832500", "123732.172500", "123734.512500", "123736.852500", "123739.192500", "123741.532500", "123743.872500", "123746.212500", "123748.552500", "123750.892500", "123753.232500", "123755.572500", "123757.912500", "123800.252500", "123802.592500", "123804.932500", "123807.272500", "123809.612500", "123811.952500", "123814.292500", "123816.632500", "123818.972500", "123821.312500", "123823.652500", "123825.992500", "123828.332500", "123830.672500", "123833.012500", "123835.352500", "123837.692500", "123840.032500", "123842.372500", "123844.712500", "123847.052500", "123849.392500", "123851.732500", "123854.072500", "123856.412500", "123858.752500", "123901.092500", "123903.432500", "123905.772500", "123908.112500", "123910.452500", "123912.792500", "123915.132500", "123917.472500", "123919.812500", "123922.152500", "123924.492500", "123926.832500", "123929.172500", "123931.512500", "123933.852500", "123936.192500", "123938.532500", "123940.872500", "123943.212500", "123945.552500", "123947.892500", "123950.232500", "123952.572500", "123954.912500", "123957.252500", "123959.592500", "124001.932500", "124004.272500", "124006.612500", "124008.952500", "124011.292500", "124013.632500", "124015.972500", "124018.312500", "124020.652500", "124022.992500", "124025.332500", "124027.672500", "124030.012500", "124032.352500", "124034.692500", "124037.032500", "124039.372500", "124041.712500", "124044.052500", "124046.392500", "124048.732500", "124051.072500", "124053.412500", "124055.752500", "124058.092500", "124100.432500", "124102.772500", "124105.112500", "124107.452500", "124109.792500", "124112.132500", "124114.472500", "124116.812500", "124119.152500", "124121.492500", "124123.832500", "124126.172500", "124128.512500", "124130.852500", "124133.192500", "124135.532500", "124137.872500", "124140.212500", "124142.552500", "124144.892500", "124147.232500", "124149.572500", "124151.912500", "124154.252500", "124156.592500", "124158.932500", "124201.272500"],
      "ContentTime": ["123752.128000", "123752.132000", "123752.135000", "123752.137000", "123752.145000", "123752.148000", "123752.151000", "123752.154000", "123752.157000", "123752.160000", "123752.163000", "123752.165000", "123752.168000", "123752.171000", "123752.174000", "123752.181000", "123752.184000", "123752.187000", "123752.190000", "123752.193000", "123752.196000", "123752.199000", "123752.202000", "123852.123000", "123852.127000", "123852.129000", "123852.132000", "123852.143000", "123852.146000", "123852.149000", "123852.152000", "123852.155000", "123852.157000", "123852.160000", "123852.162000", "123852.165000", "123852.168000", "123852.171000", "123852.174000", "123852.176000", "123852.179000", "123852.182000", "123852.185000", "123852.188000", "123852.191000", "123852.195000", "123852.197000", "123852.200000", "123952.123000", "123952.126000", "123952.136000", "123952.139000", "123952.141000", "123952.144000", "123952.147000", "123952.156000", "123952.158000", "123952.161000", "123952.164000", "123952.167000", "123952.170000", "123952.172000", "123952.176000", "123952.178000", "123952.181000", "123952.184000", "123952.186000", "123952.189000", "123952.192000", "123952.194000", "123952.197000", "123952.200000", "123952.203000", "123952.206000", "124052.123000", "124052.127000", "124052.129000", "124052.139000", "124052.142000", "124052.145000", "124052.148000", "124052.151000", "124052.154000", "124052.157000", "124052.160000", "124052.163000", "124052.166000", "124052.169000", "124052.171000", "124052.175000", "124052.177000", "124052.180000", "124052.183000", "124052.186000", "124052.189000", "124052.191000", "124052.194000", "124052.197000", "124052.200000", "124052.202000", "124152.123000", "124152.126000", "124152.129000", "124152.132000", "124152.135000", "124152.137000", "124152.140000", "124152.143000", "124152.146000", "124152.148000", "124152.151000", "124152.154000", "124152.156000", "124152.159000", "124152.162000", "124152.165000", "124152.168000", "124152.171000", "124152.174000", "124152.177000", "124152.180000", "124152.183000", "124152.186000", "124152.189000", "124152.192000", "124201.727000", "124201.731000", "124201.733000", "124201.737000", "124201.740000"],
      "InstanceCreationTime": ["123752.128000", "123752.132000", "123752.135000", "123752.137000", "123752.145000", "123752.148000", "123752.151000", "123752.154000", "123752.157000", "123752.160000", "123752.163000", "123752.165000", "123752.168000", "123752.171000", "123752.174000", "123752.181000", "123752.184000", "123752.187000", "123752.190000", "123752.193000", "123752.196000", "123752.199000", "123752.202000", "123852.123000", "123852.127000", "123852.129000", "123852.132000", "123852.143000", "123852.146000", "123852.149000", "123852.152000", "123852.155000", "123852.157000", "123852.160000", "123852.162000", "123852.165000", "123852.168000", "123852.171000", "123852.174000", "123852.176000", "123852.179000", "123852.182000", "123852.185000", "123852.188000", "123852.191000", "123852.195000", "123852.197000", "123852.200000", "123952.123000", "123952.126000", "123952.136000", "123952.139000", "123952.141000", "123952.144000", "123952.147000", "123952.156000", "123952.158000", "123952.161000", "123952.164000", "123952.167000", "123952.170000", "123952.172000", "123952.176000", "123952.178000", "123952.181000", "123952.184000", "123952.186000", "123952.189000", "123952.192000", "123952.194000", "123952.197000", "123952.200000", "123952.203000", "123952.206000", "124052.123000", "124052.127000", "124052.129000", "124052.139000", "124052.142000", "124052.145000", "124052.148000", "124052.151000", "124052.154000", "124052.157000", "124052.160000", "124052.163000", "124052.166000", "124052.169000", "124052.171000", "124052.175000", "124052.177000", "124052.180000", "124052.183000", "124052.186000", "124052.189000", "124052.191000", "124052.194000", "124052.197000", "124052.200000", "124052.202000", "124152.123000", "124152.126000", "124152.129000", "124152.132000", "124152.135000", "124152.137000", "124152.140000", "124152.143000", "124152.146000", "124152.148000", "124152.151000", "124152.154000", "124152.156000", "124152.159000", "124152.162000", "124152.165000", "124152.168000", "124152.171000", "124152.174000", "124152.177000", "124152.180000", "124152.183000", "124152.186000", "124152.189000", "124152.192000", "124201.727000", "124201.731000", "124201.733000", "124201.737000", "124201.740000"],
      "InstanceNumber": [1, 2, 3, 4, 5, 6, 7, 8, 9, 10, 11, 12, 13, 14, 15, 16, 17, 18, 19, 20, 21, 22, 23, 24, 25, 26, 27, 28, 29, 30, 31, 32, 33, 34, 35, 36, 37, 38, 39, 40, 41, 42, 43, 44, 45, 46, 47, 48, 49, 50, 51, 52, 53, 54, 55, 56, 57, 58, 59, 60, 61, 62, 63, 64, 65, 66, 67, 68, 69, 70, 71, 72, 73, 74, 75, 76, 77, 78, 79, 80, 81, 82, 83, 84, 85, 86, 87, 88, 89, 90, 91, 92, 93, 94, 95, 96, 97, 98, 99, 100, 101, 102, 103, 104, 105, 106, 107, 108, 109, 110, 111, 112, 113, 114, 115, 116, 117, 118, 119, 120, 121, 122, 123, 124, 125, 126, 127, 128, 129, 130],
      "LargestImagePixelValue": [2062, 2151, 2007, 2092, 1858, 1836, 1751, 1890, 1979, 1775, 2028, 1539, 2352, 2359, 2245, 2123, 1786, 2119, 1733, 1754, 1693, 2181, 1563, 1821, 1717, 2127, 2021, 1656, 2042, 1803, 1681, 2287, 1704, 1913, 2297, 1664, 2090, 2145, 1732, 2419, 1612, 1745, 2128, 2782, 1895, 1787, 1902, 2251, 1607, 1782, 2288, 1736, 1785, 2094, 1799, 1630, 1773, 2263, 2039, 2270, 1617, 1904, 1978, 1921, 2008, 1911, 1761, 1756, 2038, 2204, 1786, 2009, 2252, 1763, 1809, 2074, 2000, 1699, 1781, 2466, 1737, 1826, 1545, 1950, 1826, 1997, 2134, 1645, 2110, 1703, 2081, 1521, 1701, 1680, 2151, 2393, 2201, 1559, 1622, 2205, 2122, 1967, 2065, 1710, 2121, 1678, 1868, 1724, 2214, 1555, 2010, 1771, 2044, 2065, 2494, 1615, 2061, 2261, 2319, 1829, 1605, 2098, 2361, 1751, 1918, 1719, 2268, 2065, 1833, 1842],
      "WindowCenter": [761.0, 760.0, 756.0, 757.0, 757.0, 757.0, 758.0, 755.0, 759.0, 760.0, 760.0, 754.0, 753.0, 757.0, 754.0, 753.0, 749.0, 754.0, 754.0, 758.0, 758.0, 758.0, 753.0, 758.0, 756.0, 758.0, 756.0, 757.0, 757.0, 759.0, 762.0, 757.0, 758.0, 762.0, 761.0, 764.0, 759.0, 759.0, 759.0, 760.0, 756.0, 763.0, 760.0, 760.0, 753.0, 757.0, 759.0, 758.0, 754.0, 759.0, 759.0, 758.0, 759.0, 763.0, 761.0, 759.0, 759.0, 762.0, 760.0, 756.0, 756.0, 762.0, 760.0, 758.0, 758.0, 762.0, 759.0, 761.0, 762.0, 761.0, 759.0, 760.0, 761.0, 761.0, 757.0, 760.0, 760.0, 758.0, 759.0, 761.0, 757.0, 758.0, 759.0, 760.0, 759.0, 761.0, 762.0, 760.0, 762.0, 758.0, 761.0, 760.0, 762.0, 763.0, 763.0, 760.0, 758.0, 757.0, 761.0, 763.0, 760.0, 762.0, 760.0, 761.0, 762.0, 761.0, 760.0, 758.0, 760.0, 756.0, 756.0, 762.0, 758.0, 760.0, 761.0, 760.0, 759.0, 763.0, 758.0, 764.0, 758.0, 764.0, 758.0, 760.0, 760.0, 762.0, 763.0, 762.0, 760.0, 762.0],
      "WindowWidth": [1600.0, 1597.0, 1589.0, 1591.0, 1591.0, 1589.0, 1591.0, 1586.0, 1593.0, 1600.0, 1597.0, 1580.0, 1587.0, 1591.0, 1583.0, 1582.0, 1572.0, 1584.0, 1583.0, 1594.0, 1592.0, 1592.0, 1578.0, 1594.0, 1588.0, 1594.0, 1588.0, 1589.0, 1590.0, 1596.0, 1599.0, 1596.0, 1594.0, 1601.0, 1598.0, 1608.0, 1595.0, 1596.0, 1595.0, 1598.0, 1588.0, 1604.0, 1600.0, 1595.0, 1577.0, 1596.0, 1597.0, 1592.0, 1580.0, 1595.0, 1595.0, 1593.0, 1596.0, 1606.0, 1599.0, 1595.0, 1596.0, 1601.0, 1597.0, 1589.0, 1588.0, 1603.0, 1597.0, 1592.0, 1592.0, 1602.0, 1596.0, 1599.0, 1601.0, 1600.0, 1594.0, 1597.0, 1600.0, 1600.0, 1592.0, 1599.0, 1597.0, 1594.0, 1597.0, 1599.0, 1591.0, 1593.0, 1596.0, 1598.0, 1596.0, 1602.0, 1602.0, 1596.0, 1601.0, 1591.0, 1599.0, 1598.0, 1604.0, 1607.0, 1606.0, 1597.0, 1592.0, 1592.0, 1600.0, 1604.0, 1599.0, 1602.0, 1597.0, 1601.0, 1602.0, 1601.0, 1597.0, 1594.0, 1599.0, 1588.0, 1587.0, 1602.0, 1593.0, 1598.0, 1599.0, 1596.0, 1597.0, 1605.0, 1594.0, 1606.0, 1594.0, 1606.0, 1594.0, 1597.0, 1598.0, 1602.0, 1605.0, 1602.0, 1599.0, 1601.0]
    },
    "slices": {}
  }
}