{
  "AcquisitionMatrixPE": 64,
  "AcquisitionNumber": 1,
  "AcquisitionTime": "11:19:9.902500",
  "BandwidthPerPixelPhaseEncode": 24.038,
  "BaseResolution": 64,
  "BodyPartExamined": "HEAD",
  "ConsistencyInfo": "N4_VD13A_LATEST_20120616",
  "ConversionSoftware": "dcm2niix",
  "ConversionSoftwareVersion": "v1.0.20181125  GCC6.3.0",
  "DerivedVendorReportedEchoSpacing": 0.000650012,
  "DeviceSerialNumber": "45250",
  "DwellTime": 4.6e-06,
  "EchoTime": 0.033,
  "EchoTrainLength": 64,
  "EffectiveEchoSpacing": 0.000650012,
  "FlipAngle": 90,
  "ImageOrientationPatientDICOM": [0.999871, 0.0082881, -0.0137898, -0.010471, 0.985963, -0.166635],
  "ImageType": [
    "ORIGINAL",
    "PRIMARY",
    "M",
    "ND",
    "NORM",
    "MOSAIC"
],
  "ImagingFrequency": 123.214,
  "InPlanePhaseEncodingDirectionDICOM": "COL",
  "InstitutionAddress": "Kopernikusstr._26_Graz_Graz_AT_8010",
  "InstitutionName": "KFU",
  "InstitutionalDepartmentName": "Department",
  "MRAcquisitionType": "2D",
  "MagneticFieldStrength": 3,
  "Manufacturer": "Siemens",
  "ManufacturersModelName": "Skyra",
  "Modality": "MR",
  "PartialFourier": 1,
  "PatientPosition": "HFS",
  "PercentPhaseFOV": 100,
  "PhaseEncodingDirection": "j-",
  "PhaseEncodingSteps": 64,
  "PhaseResolution": 1,
  "PixelBandwidth": 1700,
  "ProcedureStepDescription": "KFU_Entw-Psy",
  "ProtocolName": "fMRI_2",
  "PulseSequenceDetails": "%SiemensSeq%_ep2d_pace",
  "ReceiveCoilActiveElements": "HE1-4",
  "ReceiveCoilName": "HeadNeck_20",
  "ReconMatrixPE": 64,
  "RepetitionTime": 2.34,
  "SAR": 0.165676,
  "ScanOptions": "FS",
  "ScanningSequence": "EP",
  "SequenceName": "_epfid2d1_64",
  "SequenceVariant": "SK",
  "SeriesDescription": "fMRI_2",
  "SeriesNumber": 5,
  "ShimSetting": [-1612, -3668, -4284, 391, 260, 152, 332, -259],
  "SliceThickness": 3,
  "SliceTiming": [2.2525, 2.1825, 2.115, 2.0475, 1.9775, 1.91, 1.8425, 1.775, 1.705, 1.6375, 1.57, 1.5, 1.4325, 1.365, 1.295, 1.2275, 1.16, 1.0925, 1.0225, 0.955, 0.8875, 0.8175, 0.75, 0.6825, 0.615, 0.545, 0.4775, 0.41, 0.34, 0.2725, 0.205, 0.1375, 0.0675, 0],
  "SoftwareVersions": "syngo_MR_D13",
  "SpacingBetweenSlices": 3.3,
  "StationName": "FBMTMR1",
  "TaskName": "read",
  "TotalReadoutTime": 0.0409508,
  "TxRefAmp": 327.382,
  "dcmmeta_affine": [
    [-2.9996116161346436, -0.031412914395332336, -0.04030998423695564, 97.81884002685547],
    [-0.024864286184310913, 2.9578893184661865, -0.5503000617027283, -109.88983917236328],
    [-0.04136939346790314, 0.4999043047428131, 3.2535433769226074, -9.85378360748291],
    [0.0, 0.0, 0.0, 1.0]
],
  "dcmmeta_reorient_transform": [
    [0.0, -1.0, 0.0, 63.0],
    [1.0, 0.0, 0.0, 0.0],
    [0.0, 0.0, 1.0, 0.0],
    [0.0, 0.0, 0.0, 1.0]
],
  "dcmmeta_shape": [64, 64, 34, 127],
  "dcmmeta_slice_dim": 2,
  "dcmmeta_version": 0.6,
  "global": {
    "const": {
      "AcquisitionMatrix": [64, 0, 0, 64],
      "AngioFlag": "N",
      "BitsAllocated": 16,
      "BitsStored": 12,
      "BodyPartExamined": "HEAD",
      "Columns": 384,
      "EchoNumbers": 1,
      "EchoTime": 33.0,
      "EchoTrainLength": 64,
      "FlipAngle": 90.0,
      "HighBit": 11,
      "ImageOrientationPatient": [0.99987056609849, 0.0082880954506, -0.013789797812, -0.0104709712603, 0.9859630888535, -0.1666347688189],
      "ImagePositionPatient": [-570.75163511262, -553.69775160191, 108.24397930015],
      "ImageType": [
        "ORIGINAL",
        "PRIMARY",
        "M",
        "ND",
        "NORM",
        "MOSAIC"
],
      "ImagedNucleus": "1H",
      "ImagingFrequency": 123.214377,
      "InPlanePhaseEncodingDirection": "COL",
      "MRAcquisitionType": "2D",
      "MagneticFieldStrength": 3.0,
      "Manufacturer": "SIEMENS",
      "ManufacturerModelName": "Skyra",
      "Modality": "MR",
      "NumberOfAverages": 1.0,
      "NumberOfPhaseEncodingSteps": 64,
      "PercentPhaseFieldOfView": 100.0,
      "PercentSampling": 100.0,
      "PerformedProcedureStepStartTime": "111105.588000",
      "PhotometricInterpretation": "MONOCHROME2",
      "PixelBandwidth": 1700.0,
      "PixelRepresentation": 0,
      "PixelSpacing": [3.0, 3.0],
      "ProtocolName": "fMRI_2",
      "RepetitionTime": 2340.0,
      "Rows": 384,
      "SAR": 0.1656763952545,
      "SamplesPerPixel": 1,
      "ScanOptions": "FS",
      "ScanningSequence": "EP",
      "SequenceName": "*epfid2d1_64",
      "SequenceVariant": "SK",
      "SeriesDescription": "fMRI_2",
      "SeriesNumber": 5,
      "SeriesTime": "111957.519000",
      "SliceLocation": 7.4150288761773,
      "SliceThickness": 3.0,
      "SmallestImagePixelValue": 0,
      "SoftwareVersions": "syngo MR D13",
      "SpacingBetweenSlices": 3.3000000209964,
      "SpecificCharacterSet": "ISO_IR 100",
      "StudyID": "1",
      "StudyTime": "111105.539000",
      "TransmitCoilName": "Body",
      "VariableFlipAngleFlag": "N",
      "WindowCenterWidthExplanation": "Algo1",
      "dBdt": 0.0},
    "slices": {}
  },
  "time": {
    "samples": {
      "AcquisitionNumber": [1, 2, 3, 4, 5, 6, 7, 8, 9, 10, 11, 12, 13, 14, 15, 16, 17, 18, 19, 20, 21, 22, 23, 24, 25, 26, 27, 28, 29, 30, 31, 32, 33, 34, 35, 36, 37, 38, 39, 40, 41, 42, 43, 44, 45, 46, 47, 48, 49, 50, 51, 52, 53, 54, 55, 56, 57, 58, 59, 60, 61, 62, 63, 64, 65, 66, 67, 68, 69, 70, 71, 72, 73, 74, 75, 76, 77, 78, 79, 80, 81, 82, 83, 84, 85, 86, 87, 88, 89, 90, 91, 92, 93, 94, 95, 96, 97, 98, 99, 100, 101, 102, 103, 104, 105, 106, 107, 108, 109, 110, 111, 112, 113, 114, 115, 116, 117, 118, 119, 120, 121, 122, 123, 124, 125, 126, 127],
      "AcquisitionTime": ["111909.902500", "111912.242500", "111914.582500", "111916.922500", "111919.262500", "111921.602500", "111923.942500", "111926.282500", "111928.622500", "111930.962500", "111933.302500", "111935.642500", "111937.982500", "111940.322500", "111942.662500", "111945.002500", "111947.342500", "111949.682500", "111952.022500", "111954.362500", "111956.702500", "111959.042500", "112001.382500", "112003.722500", "112006.062500", "112008.402500", "112010.742500", "112013.082500", "112015.422500", "112017.762500", "112020.102500", "112022.442500", "112024.782500", "112027.122500", "112029.462500", "112031.802500", "112034.142500", "112036.482500", "112038.822500", "112041.162500", "112043.502500", "112045.842500", "112048.182500", "112050.522500", "112052.862500", "112055.202500", "112057.542500", "112059.882500", "112102.222500", "112104.562500", "112106.902500", "112109.242500", "112111.582500", "112113.922500", "112116.262500", "112118.602500", "112120.942500", "112123.282500", "112125.622500", "112127.962500", "112130.302500", "112132.642500", "112134.982500", "112137.322500", "112139.662500", "112142.002500", "112144.342500", "112146.682500", "112149.022500", "112151.362500", "112153.702500", "112156.042500", "112158.382500", "112200.722500", "112203.062500", "112205.402500", "112207.742500", "112210.082500", "112212.422500", "112214.762500", "112217.102500", "112219.442500", "112221.782500", "112224.122500", "112226.462500", "112228.802500", "112231.142500", "112233.482500", "112235.822500", "112238.162500", "112240.502500", "112242.842500", "112245.182500", "112247.522500", "112249.862500", "112252.202500", "112254.542500", "112256.882500", "112259.222500", "112301.562500", "112303.902500", "112306.242500", "112308.582500", "112310.922500", "112313.262500", "112315.602500", "112317.942500", "112320.282500", "112322.622500", "112324.962500", "112327.302500", "112329.642500", "112331.982500", "112334.322500", "112336.662500", "112339.002500", "112341.342500", "112343.682500", "112346.022500", "112348.362500", "112350.702500", "112353.042500", "112355.382500", "112357.722500", "112400.062500", "112402.402500", "112404.742500"],
      "ContentTime": ["111957.524000", "111957.528000", "111957.531000", "111957.534000", "111957.542000", "111957.545000", "111957.547000", "111957.550000", "111957.553000", "111957.561000", "111957.564000", "111957.567000", "111957.569000", "111957.572000", "111957.575000", "111957.578000", "111957.581000", "111957.583000", "111957.586000", "111957.589000", "111957.592000", "112057.518000", "112057.522000", "112057.525000", "112057.528000", "112057.530000", "112057.533000", "112057.536000", "112057.539000", "112057.542000", "112057.545000", "112057.547000", "112057.551000", "112057.554000", "112057.556000", "112057.559000", "112057.562000", "112057.565000", "112057.568000", "112057.571000", "112057.574000", "112057.576000", "112057.579000", "112057.582000", "112057.585000", "112057.588000", "112157.519000", "112157.523000", "112157.525000", "112157.528000", "112157.531000", "112157.534000", "112157.537000", "112157.540000", "112157.542000", "112157.545000", "112157.548000", "112157.551000", "112157.554000", "112157.557000", "112157.559000", "112157.562000", "112157.565000", "112157.568000", "112157.571000", "112157.574000", "112157.576000", "112157.579000", "112157.582000", "112157.585000", "112157.588000", "112157.591000", "112257.519000", "112257.522000", "112257.525000", "112257.528000", "112257.531000", "112257.534000", "112257.537000", "112257.539000", "112257.542000", "112257.545000", "112257.548000", "112257.551000", "112257.554000", "112257.557000", "112257.560000", "112257.562000", "112257.565000", "112257.568000", "112257.571000", "112257.574000", "112257.577000", "112257.580000", "112257.582000", "112257.585000", "112257.588000", "112257.591000", "112357.518000", "112357.522000", "112357.524000", "112357.527000", "112357.530000", "112357.533000", "112357.536000", "112357.539000", "112357.541000", "112357.544000", "112357.547000", "112357.550000", "112357.553000", "112357.556000", "112357.558000", "112357.561000", "112357.564000", "112357.567000", "112357.570000", "112357.573000", "112357.575000", "112357.578000", "112357.581000", "112357.584000", "112357.587000", "112405.556000", "112405.560000", "112405.562000", "112405.565000"],
      "InstanceCreationTime": ["111957.524000", "111957.528000", "111957.531000", "111957.534000", "111957.542000", "111957.545000", "111957.547000", "111957.550000", "111957.553000", "111957.561000", "111957.564000", "111957.567000", "111957.569000", "111957.572000", "111957.575000", "111957.578000", "111957.581000", "111957.583000", "111957.586000", "111957.589000", "111957.592000", "112057.518000", "112057.522000", "112057.525000", "112057.528000", "112057.530000", "112057.533000", "112057.536000", "112057.539000", "112057.542000", "112057.545000", "112057.547000", "112057.551000", "112057.554000", "112057.556000", "112057.559000", "112057.562000", "112057.565000", "112057.568000", "112057.571000", "112057.574000", "112057.576000", "112057.579000", "112057.582000", "112057.585000", "112057.588000", "112157.519000", "112157.523000", "112157.525000", "112157.528000", "112157.531000", "112157.534000", "112157.537000", "112157.540000", "112157.542000", "112157.545000", "112157.548000", "112157.551000", "112157.554000", "112157.557000", "112157.559000", "112157.562000", "112157.565000", "112157.568000", "112157.571000", "112157.574000", "112157.576000", "112157.579000", "112157.582000", "112157.585000", "112157.588000", "112157.591000", "112257.519000", "112257.522000", "112257.525000", "112257.528000", "112257.531000", "112257.534000", "112257.537000", "112257.539000", "112257.542000", "112257.545000", "112257.548000", "112257.551000", "112257.554000", "112257.557000", "112257.560000", "112257.562000", "112257.565000", "112257.568000", "112257.571000", "112257.574000", "112257.577000", "112257.580000", "112257.582000", "112257.585000", "112257.588000", "112257.591000", "112357.518000", "112357.522000", "112357.524000", "112357.527000", "112357.530000", "112357.533000", "112357.536000", "112357.539000", "112357.541000", "112357.544000", "112357.547000", "112357.550000", "112357.553000", "112357.556000", "112357.558000", "112357.561000", "112357.564000", "112357.567000", "112357.570000", "112357.573000", "112357.575000", "112357.578000", "112357.581000", "112357.584000", "112357.587000", "112405.556000", "112405.560000", "112405.562000", "112405.565000"],
      "InstanceNumber": [1, 2, 3, 4, 5, 6, 7, 8, 9, 10, 11, 12, 13, 14, 15, 16, 17, 18, 19, 20, 21, 22, 23, 24, 25, 26, 27, 28, 29, 30, 31, 32, 33, 34, 35, 36, 37, 38, 39, 40, 41, 42, 43, 44, 45, 46, 47, 48, 49, 50, 51, 52, 53, 54, 55, 56, 57, 58, 59, 60, 61, 62, 63, 64, 65, 66, 67, 68, 69, 70, 71, 72, 73, 74, 75, 76, 77, 78, 79, 80, 81, 82, 83, 84, 85, 86, 87, 88, 89, 90, 91, 92, 93, 94, 95, 96, 97, 98, 99, 100, 101, 102, 103, 104, 105, 106, 107, 108, 109, 110, 111, 112, 113, 114, 115, 116, 117, 118, 119, 120, 121, 122, 123, 124, 125, 126, 127],
      "LargestImagePixelValue": [1890, 2586, 2109, 2515, 2463, 2914, 2641, 1953, 1794, 1912, 2412, 1975, 1932, 2031, 2155, 2209, 2397, 1860, 2008, 1810, 2242, 2135, 1990, 2526, 2012, 2300, 2714, 2939, 2391, 2426, 1790, 1820, 1807, 1764, 1771, 1826, 1951, 2432, 2110, 2055, 2603, 1865, 2275, 2307, 2622, 1947, 2403, 2300, 1906, 3260, 2024, 2020, 1776, 1962, 1775, 1861, 1962, 2244, 2089, 2163, 2317, 1924, 2197, 2182, 2200, 2369, 1843, 1995, 2173, 1930, 2380, 1900, 1881, 2388, 2466, 2756, 1738, 2343, 2218, 2196, 1824, 2334, 1862, 1847, 1833, 1838, 1764, 2277, 1915, 1899, 2394, 2859, 3282, 2003, 1775, 2471, 2242, 2289, 2651, 1840, 2180, 2613, 2343, 2780, 2075, 1990, 1801, 1879, 1925, 1821, 2012, 2121, 2206, 1811, 2713, 1868, 1919, 2728, 2439, 2512, 2530, 2703, 2490, 1822, 1941, 1910, 1766],
      "WindowCenter": [839.0, 840.0, 840.0, 839.0, 838.0, 843.0, 838.0, 843.0, 841.0, 843.0, 839.0, 840.0, 839.0, 840.0, 839.0, 841.0, 839.0, 838.0, 841.0, 842.0, 843.0, 843.0, 841.0, 841.0, 846.0, 840.0, 841.0, 834.0, 826.0, 831.0, 832.0, 835.0, 839.0, 840.0, 840.0, 843.0, 841.0, 843.0, 841.0, 843.0, 842.0, 844.0, 841.0, 843.0, 840.0, 840.0, 841.0, 838.0, 837.0, 838.0, 849.0, 843.0, 842.0, 844.0, 841.0, 846.0, 846.0, 847.0, 843.0, 845.0, 843.0, 842.0, 845.0, 841.0, 842.0, 842.0, 840.0, 842.0, 845.0, 845.0, 844.0, 839.0, 832.0, 839.0, 838.0, 836.0, 831.0, 833.0, 833.0, 839.0, 838.0, 840.0, 841.0, 844.0, 844.0, 844.0, 841.0, 844.0, 844.0, 846.0, 843.0, 844.0, 840.0, 843.0, 844.0, 844.0, 841.0, 842.0, 843.0, 844.0, 844.0, 841.0, 838.0, 841.0, 838.0, 836.0, 839.0, 839.0, 840.0, 842.0, 842.0, 843.0, 843.0, 844.0, 843.0, 845.0, 847.0, 851.0, 851.0, 843.0, 838.0, 839.0, 838.0, 839.0, 838.0, 840.0, 841.0],
      "WindowWidth": [1783.0, 1785.0, 1784.0, 1785.0, 1783.0, 1787.0, 1778.0, 1794.0, 1786.0, 1792.0, 1785.0, 1785.0, 1783.0, 1785.0, 1784.0, 1789.0, 1782.0, 1780.0, 1787.0, 1791.0, 1793.0, 1793.0, 1786.0, 1793.0, 1799.0, 1791.0, 1794.0, 1769.0, 1747.0, 1764.0, 1762.0, 1772.0, 1779.0, 1784.0, 1783.0, 1791.0, 1788.0, 1793.0, 1788.0, 1795.0, 1792.0, 1795.0, 1789.0, 1793.0, 1787.0, 1784.0, 1789.0, 1779.0, 1776.0, 1788.0, 1797.0, 1791.0, 1789.0, 1794.0, 1787.0, 1800.0, 1802.0, 1803.0, 1793.0, 1798.0, 1793.0, 1790.0, 1797.0, 1788.0, 1789.0, 1791.0, 1784.0, 1791.0, 1798.0, 1798.0, 1795.0, 1778.0, 1783.0, 1789.0, 1783.0, 1777.0, 1761.0, 1769.0, 1768.0, 1781.0, 1778.0, 1789.0, 1787.0, 1794.0, 1794.0, 1794.0, 1787.0, 1796.0, 1795.0, 1796.0, 1797.0, 1794.0, 1784.0, 1794.0, 1795.0, 1797.0, 1787.0, 1790.0, 1792.0, 1796.0, 1795.0, 1790.0, 1781.0, 1789.0, 1780.0, 1776.0, 1782.0, 1784.0, 1786.0, 1790.0, 1792.0, 1794.0, 1794.0, 1795.0, 1799.0, 1797.0, 1800.0, 1810.0, 1811.0, 1799.0, 1789.0, 1782.0, 1780.0, 1783.0, 1782.0, 1786.0, 1789.0]
    },
    "slices": {}
  }
}